Sample ID:	C:\MCC\MCC Cal\Test\PUF_30_3.txt
Sample Weight (mg):	5
Heating Rate (C/s):	0.5
Combustor Temp (C):	900
N2 Flow Rate (cc/min):	80
O2 Flow Rate (cc/min):	20
Calibration File:	C:\MCC\MCC Cal\Coeff1 JN10440_30_210304.txt.txt
T Correction Coefficients:	0	1.024463	0
Time Shift (s):	14
*
Time (s)	Temperature (C)	N2 flow rate (cc/min)	O2 flow rate (cc/min)	Flow Rate (cc/min)	Oxygen (%)	HRR (W/g)	Heating rate (C/s)
0.000	107.944	79.987	19.995	99.717	20.109	-0.232	-0.028
0.500	107.974	79.986	19.993	99.717	20.109	-0.228	0.018
1.000	107.944	79.985	19.994	99.696	20.110	-0.315	0.025
1.500	107.961	79.987	19.993	99.665	20.111	-0.327	-0.006
2.000	107.954	79.988	19.994	99.657	20.107	-0.112	-0.001
2.500	107.964	79.986	19.994	99.656	20.109	-0.230	0.007
3.000	107.925	79.986	19.995	99.655	20.110	-0.301	-0.013
3.500	107.974	79.986	19.994	99.652	20.108	-0.174	-0.010
4.000	107.968	79.989	19.993	99.650	20.109	-0.255	0.026
4.500	107.966	79.986	19.994	99.647	20.113	-0.458	0.017
5.000	107.941	79.988	19.996	99.646	20.113	-0.485	-0.018
5.500	107.991	79.987	19.994	99.646	20.115	-0.574	-0.001
6.000	107.940	79.986	19.993	99.646	20.112	-0.443	0.012
6.500	107.949	79.987	19.995	99.645	20.109	-0.255	-0.021
7.000	107.940	79.988	19.991	99.645	20.105	0.005	-0.021
7.500	108.000	79.987	19.993	99.645	20.108	-0.177	0.026
8.000	107.977	79.986	19.993	99.645	20.105	-0.003	0.044
8.500	107.958	79.987	19.992	99.645	20.106	-0.061	-0.002
9.000	107.973	79.987	19.993	99.644	20.105	0.005	-0.023
9.500	107.913	79.986	19.994	99.645	20.107	-0.087	-0.025
10.000	107.916	79.988	19.992	99.645	20.109	-0.249	-0.051
10.500	107.918	79.987	19.991	99.645	20.110	-0.267	-0.026
11.000	107.954	79.988	19.993	99.644	20.110	-0.281	0.021
11.500	107.939	79.987	19.992	99.647	20.108	-0.138	0.029
12.000	107.946	79.985	19.994	99.647	20.110	-0.273	0.006
12.500	107.974	79.985	19.994	99.648	20.107	-0.118	0.013
13.000	107.953	79.987	19.993	99.648	20.110	-0.293	0.021
13.501	107.949	79.985	19.993	99.649	20.108	-0.143	-0.009
14.001	107.930	79.987	19.992	99.648	20.107	-0.099	-0.024
14.500	107.946	79.985	19.993	99.646	20.105	0.003	-0.013
15.000	107.922	79.989	19.994	99.645	20.106	-0.036	-0.005
15.500	107.916	79.986	19.992	99.644	20.110	-0.269	-0.019
16.000	107.926	79.987	19.991	99.648	20.105	0.003	-0.013
16.500	107.926	79.988	19.994	99.652	20.107	-0.111	0.007
17.000	107.948	79.986	19.993	99.661	20.106	-0.046	0.016
17.500	107.926	79.986	19.992	99.668	20.106	-0.060	0.011
18.000	107.926	79.988	19.994	99.676	20.102	0.194	-0.011
18.500	107.963	79.987	19.992	99.679	20.106	-0.027	0.007
19.000	107.989	79.988	19.992	99.682	20.101	0.264	0.050
19.500	107.975	79.986	19.993	99.684	20.101	0.242	0.037
20.000	107.969	79.988	19.994	99.684	20.098	0.440	-0.004
20.500	107.970	79.990	19.993	99.684	20.104	0.109	-0.012
21.000	107.937	79.987	19.994	99.685	20.098	0.428	-0.018
21.500	107.921	79.988	19.994	99.685	20.100	0.321	-0.041
22.000	107.966	79.988	19.994	99.686	20.100	0.343	-0.010
22.500	107.956	79.986	19.993	99.694	20.101	0.259	0.032
23.000	107.985	79.989	19.994	99.702	20.099	0.387	0.027
23.500	107.949	79.989	19.993	99.711	20.099	0.377	0.006
24.000	107.957	79.990	19.994	99.726	20.099	0.401	-0.017
24.500	107.990	79.990	19.994	99.747	20.100	0.345	0.007
25.000	108.013	79.987	19.994	99.759	20.094	0.689	0.049
25.500	107.979	79.988	19.993	99.767	20.092	0.831	0.023
26.000	108.062	79.989	19.993	99.776	20.090	0.937	0.019
26.500	108.025	79.988	19.993	99.783	20.088	1.104	0.047
27.000	108.078	79.989	19.993	99.784	20.088	1.063	0.031
27.500	108.085	79.989	19.994	99.788	20.092	0.852	0.038
28.000	108.101	79.990	19.993	99.795	20.090	0.946	0.041
28.500	108.135	79.990	19.992	99.801	20.088	1.074	0.036
29.000	108.165	79.989	19.994	99.807	20.089	1.014	0.057
29.500	108.208	79.989	19.994	99.809	20.086	1.198	0.069
30.000	108.222	79.991	19.995	99.809	20.083	1.418	0.065
30.500	108.259	79.995	19.994	99.814	20.083	1.416	0.054
31.000	108.267	79.992	19.994	99.820	20.085	1.288	0.048
31.500	108.323	79.996	19.994	99.822	20.080	1.582	0.055
32.000	108.356	79.992	19.995	99.833	20.079	1.618	0.076
32.500	108.387	79.991	19.994	99.842	20.077	1.780	0.076
33.000	108.444	79.991	19.995	99.850	20.076	1.831	0.076
33.500	108.494	79.992	19.995	99.858	20.076	1.818	0.098
34.001	108.493	79.991	19.995	99.862	20.077	1.778	0.078
34.501	108.565	79.990	19.994	99.858	20.078	1.708	0.060
35.000	108.614	79.989	19.992	99.861	20.077	1.737	0.096
35.500	108.654	79.989	19.993	99.866	20.073	2.009	0.105
36.000	108.717	79.988	19.994	99.869	20.074	1.963	0.097
36.500	108.783	79.990	19.993	99.875	20.075	1.886	0.116
37.000	108.837	79.988	19.993	99.886	20.074	1.944	0.124
37.500	108.962	79.989	19.993	99.890	20.074	1.924	0.149
38.000	108.992	79.988	19.995	99.892	20.074	1.961	0.167
38.500	109.046	79.990	19.993	99.892	20.071	2.124	0.120
39.000	109.130	79.988	19.994	99.891	20.068	2.346	0.111
39.500	109.201	79.987	19.995	99.890	20.067	2.381	0.147
40.000	109.292	79.988	19.994	99.891	20.068	2.325	0.158
40.500	109.340	79.989	19.994	99.889	20.069	2.291	0.150
41.000	109.417	79.989	19.994	99.883	20.065	2.489	0.132
41.500	109.511	79.988	19.994	99.874	20.066	2.468	0.148
42.000	109.595	79.987	19.995	99.869	20.065	2.518	0.175
42.500	109.687	79.989	19.993	99.866	20.067	2.419	0.177
43.000	109.776	79.989	19.994	99.865	20.068	2.340	0.179
43.500	109.837	79.991	19.995	99.869	20.064	2.588	0.166
44.000	109.930	79.990	19.996	99.879	20.063	2.649	0.152
44.500	110.018	79.989	19.994	99.884	20.063	2.651	0.167
45.000	110.115	79.990	19.992	99.885	20.064	2.602	0.183
45.500	110.195	79.990	19.994	99.885	20.062	2.699	0.181
46.000	110.310	79.990	19.994	99.885	20.060	2.830	0.186
46.500	110.365	79.988	19.992	99.883	20.059	2.875	0.183
47.000	110.471	79.990	19.992	99.884	20.058	2.935	0.165
47.500	110.596	79.990	19.994	99.889	20.062	2.687	0.196
48.000	110.737	79.990	19.992	99.895	20.058	2.965	0.249
48.500	110.825	79.989	19.994	99.903	20.058	2.935	0.248
49.000	110.930	79.991	19.994	99.908	20.059	2.901	0.211
49.501	111.017	79.990	19.993	99.913	20.060	2.832	0.192
50.001	111.109	79.991	19.993	99.916	20.062	2.725	0.185
50.500	111.294	79.990	19.994	99.918	20.059	2.868	0.228
51.000	111.382	79.990	19.994	99.918	20.061	2.769	0.275
51.500	111.495	79.992	19.995	99.918	20.058	2.948	0.237
52.000	111.624	79.989	19.995	99.912	20.059	2.909	0.222
52.500	111.702	79.989	19.993	99.905	20.059	2.858	0.224
53.000	111.778	79.990	19.993	99.904	20.058	2.927	0.181
53.500	111.881	79.990	19.994	99.900	20.057	3.038	0.167
54.000	112.027	79.989	19.994	99.897	20.056	3.083	0.214
54.501	112.176	79.988	19.994	99.901	20.059	2.879	0.272
55.001	112.289	79.989	19.994	99.907	20.054	3.182	0.279
55.501	112.413	79.990	19.995	99.907	20.055	3.154	0.250
56.000	112.527	79.989	19.993	99.909	20.055	3.142	0.238
56.500	112.654	79.992	19.993	99.913	20.053	3.258	0.240
57.000	112.768	79.990	19.994	99.915	20.052	3.340	0.241
57.500	112.916	79.988	19.995	99.914	20.053	3.263	0.251
58.000	113.047	79.987	19.994	99.917	20.049	3.512	0.270
58.500	113.158	79.989	19.994	99.918	20.055	3.143	0.261
59.000	113.330	79.988	19.994	99.918	20.051	3.375	0.262
59.501	113.461	79.988	19.995	99.917	20.050	3.449	0.293
60.001	113.578	79.990	19.994	99.919	20.055	3.167	0.276
60.501	113.738	79.988	19.993	99.919	20.051	3.408	0.262
61.000	113.871	79.988	19.995	99.919	20.051	3.388	0.285
61.500	114.026	79.989	19.993	99.919	20.050	3.463	0.291
62.000	114.154	79.988	19.995	99.920	20.049	3.531	0.285
62.500	114.290	79.987	19.994	99.923	20.050	3.459	0.273
63.000	114.488	79.986	19.996	99.932	20.053	3.259	0.299
63.500	114.632	79.988	19.992	99.939	20.047	3.613	0.338
64.000	114.765	79.986	19.995	99.944	20.047	3.654	0.310
64.500	114.948	79.987	19.994	99.950	20.049	3.539	0.297
65.000	115.104	79.988	19.994	99.953	20.051	3.377	0.327
65.500	115.233	79.989	19.994	99.951	20.049	3.500	0.312
66.000	115.417	79.986	19.992	99.951	20.049	3.528	0.299
66.500	115.585	79.986	19.993	99.951	20.052	3.326	0.332
67.000	115.779	79.987	19.993	99.946	20.050	3.471	0.356
67.500	115.889	79.986	19.992	99.941	20.048	3.558	0.333
68.000	116.062	79.986	19.995	99.936	20.050	3.458	0.294
68.500	116.210	79.985	19.992	99.929	20.044	3.800	0.302
69.000	116.416	79.987	19.994	99.924	20.044	3.820	0.338
69.500	116.560	79.985	19.993	99.928	20.048	3.545	0.352
70.000	116.715	79.988	19.992	99.928	20.048	3.598	0.324
70.500	116.936	79.988	19.993	99.929	20.049	3.528	0.338
71.000	117.091	79.987	19.994	99.935	20.048	3.598	0.376
71.500	117.256	79.987	19.992	99.942	20.046	3.692	0.348
72.000	117.425	79.988	19.993	99.944	20.047	3.659	0.327
72.500	117.632	79.987	19.992	99.945	20.044	3.835	0.355
73.000	117.792	79.986	19.993	99.944	20.045	3.733	0.372
73.500	117.990	79.986	19.993	99.938	20.046	3.687	0.363
74.000	118.167	79.986	19.993	99.930	20.051	3.392	0.366
74.501	118.349	79.985	19.995	99.924	20.051	3.393	0.367
75.001	118.523	79.987	19.993	99.925	20.050	3.462	0.358
75.501	118.698	79.987	19.994	99.930	20.049	3.539	0.353
76.001	118.917	79.987	19.993	99.932	20.048	3.577	0.372
76.500	119.060	79.986	19.993	99.933	20.051	3.360	0.378
77.000	119.247	79.988	19.994	99.934	20.052	3.316	0.346
77.500	119.437	79.987	19.993	99.933	20.054	3.229	0.353
78.000	119.604	79.985	19.994	99.933	20.053	3.290	0.367
78.500	119.836	79.985	19.994	99.939	20.050	3.420	0.378
79.000	120.027	79.986	19.993	99.946	20.049	3.509	0.411
79.500	120.195	79.987	19.992	99.951	20.051	3.396	0.391
80.000	120.397	79.989	19.995	99.956	20.049	3.514	0.365
80.500	120.659	79.987	19.993	99.957	20.049	3.526	0.417
81.000	120.819	79.988	19.995	99.957	20.050	3.450	0.442
81.500	121.052	79.988	19.996	99.957	20.049	3.513	0.407
82.000	121.197	79.988	19.995	99.957	20.047	3.653	0.386
82.500	121.408	79.992	19.995	99.949	20.049	3.503	0.367
83.000	121.576	79.997	19.996	99.941	20.052	3.327	0.368
83.500	121.813	79.993	19.993	99.929	20.052	3.352	0.392
84.001	122.015	79.997	19.995	99.913	20.046	3.672	0.421
84.501	122.242	79.998	19.993	99.904	20.048	3.585	0.434
85.001	122.407	79.996	19.993	99.904	20.048	3.571	0.411
85.501	122.604	79.997	19.994	99.901	20.049	3.537	0.377
86.001	122.787	79.995	19.993	99.905	20.046	3.671	0.371
86.500	123.011	79.995	19.994	99.912	20.048	3.579	0.393
87.000	123.210	79.999	19.993	99.919	20.048	3.605	0.415
87.500	123.398	79.994	19.994	99.925	20.047	3.641	0.405
88.000	123.625	79.996	19.994	99.928	20.045	3.752	0.401
88.500	123.850	79.997	19.994	99.929	20.044	3.836	0.434
89.000	124.054	80.003	19.995	99.932	20.047	3.627	0.441
89.500	124.258	80.002	19.994	99.928	20.049	3.540	0.418
90.000	124.476	80.004	19.994	99.927	20.048	3.549	0.415
90.500	124.678	80.007	19.994	99.935	20.048	3.554	0.422
91.000	124.890	80.006	19.995	99.943	20.047	3.667	0.417
91.500	125.114	80.001	19.995	99.949	20.050	3.463	0.425
92.000	125.328	80.001	19.995	99.955	20.052	3.347	0.437
92.500	125.560	80.002	19.993	99.957	20.049	3.491	0.442
93.000	125.764	80.007	19.994	99.956	20.049	3.537	0.441
93.500	125.979	80.006	19.994	99.956	20.051	3.388	0.428
94.000	126.183	80.008	19.994	99.955	20.053	3.250	0.419
94.500	126.404	80.006	19.994	99.956	20.055	3.162	0.422
95.000	126.621	80.003	19.992	99.956	20.049	3.525	0.432
95.500	126.829	80.006	19.994	99.957	20.052	3.343	0.431
96.000	127.024	80.007	19.993	99.956	20.050	3.476	0.414
96.500	127.249	80.007	19.994	99.949	20.050	3.436	0.412
97.000	127.473	80.008	19.993	99.942	20.049	3.534	0.435
97.500	127.709	80.008	19.991	99.940	20.050	3.474	0.455
98.001	127.922	80.006	19.994	99.940	20.048	3.547	0.454
98.501	128.162	80.007	19.993	99.942	20.047	3.639	0.451
99.001	128.358	80.007	19.992	99.948	20.048	3.544	0.444
99.501	128.584	80.010	19.993	99.955	20.048	3.583	0.429
100.000	128.810	80.006	19.993	99.956	20.045	3.778	0.438
100.501	129.058	80.007	19.994	99.956	20.053	3.288	0.463
101.001	129.238	80.010	19.993	99.955	20.051	3.397	0.451
101.501	129.453	80.008	19.994	99.954	20.047	3.631	0.412
102.000	129.691	80.004	19.993	99.955	20.048	3.597	0.424
102.500	129.879	80.004	19.994	99.954	20.048	3.549	0.440
103.000	130.137	80.007	19.994	99.953	20.052	3.302	0.436
103.500	130.351	80.004	19.994	99.953	20.046	3.667	0.459
104.000	130.559	80.002	19.994	99.955	20.046	3.676	0.447
104.500	130.843	80.000	19.993	99.957	20.050	3.478	0.457
105.000	131.052	80.001	19.993	99.961	20.052	3.344	0.493
105.500	131.321	80.005	19.992	99.970	20.049	3.518	0.486
106.000	131.535	80.001	19.993	99.971	20.055	3.116	0.480
106.500	131.767	80.005	19.993	99.969	20.050	3.419	0.465
107.000	131.999	80.005	19.993	99.959	20.056	3.080	0.455
107.500	132.259	80.003	19.993	99.948	20.050	3.437	0.478
108.000	132.515	79.997	19.994	99.932	20.050	3.443	0.504
108.500	132.741	79.994	19.992	99.923	20.051	3.380	0.499
109.000	132.927	79.992	19.992	99.911	20.049	3.510	0.447
109.500	133.172	79.997	19.993	99.909	20.045	3.730	0.422
110.000	133.417	79.997	19.995	99.909	20.048	3.602	0.460
110.500	133.642	80.003	19.992	99.909	20.050	3.444	0.480
111.000	133.874	80.005	19.993	99.910	20.050	3.458	0.464
111.500	134.106	80.006	19.993	99.915	20.048	3.555	0.461
112.000	134.356	80.003	19.994	99.914	20.050	3.458	0.473
112.500	134.580	80.005	19.994	99.909	20.048	3.558	0.478
113.000	134.805	80.003	19.995	99.909	20.047	3.631	0.461
113.500	135.047	80.004	19.994	99.917	20.050	3.443	0.458
114.000	135.293	80.006	19.994	99.918	20.045	3.768	0.478
114.500	135.527	80.006	19.993	99.922	20.047	3.619	0.484
115.000	135.759	80.006	19.996	99.927	20.044	3.797	0.473
115.500	136.031	80.009	19.993	99.925	20.050	3.436	0.485
116.000	136.264	80.009	19.994	99.918	20.049	3.503	0.505
116.500	136.521	80.006	19.993	99.917	20.048	3.605	0.498
117.000	136.773	80.004	19.994	99.916	20.047	3.649	0.500
117.500	136.994	80.007	19.993	99.916	20.050	3.480	0.491
118.000	137.219	80.005	19.993	99.919	20.049	3.507	0.459
118.501	137.472	80.003	19.993	99.919	20.047	3.649	0.461
119.001	137.731	80.004	19.994	99.920	20.045	3.770	0.495
119.500	137.969	79.999	19.994	99.921	20.048	3.594	0.505
120.000	138.243	80.003	19.993	99.921	20.043	3.898	0.505
120.500	138.482	80.002	19.993	99.920	20.044	3.816	0.512
121.000	138.737	79.998	19.993	99.923	20.045	3.760	0.503
121.500	138.960	79.997	19.993	99.929	20.045	3.748	0.486
122.000	139.193	79.997	19.992	99.938	20.048	3.562	0.467
122.500	139.487	79.996	19.992	99.947	20.045	3.743	0.491
123.000	139.699	79.994	19.992	99.955	20.045	3.755	0.516
123.500	139.947	79.994	19.992	99.961	20.048	3.574	0.483
124.000	140.193	79.991	19.993	99.961	20.045	3.743	0.477
124.500	140.456	79.990	19.992	99.965	20.044	3.804	0.501
125.000	140.707	79.990	19.993	99.964	20.046	3.685	0.512
125.500	140.958	79.990	19.993	99.964	20.046	3.713	0.508
126.000	141.233	79.988	19.992	99.963	20.047	3.641	0.514
126.500	141.441	79.988	19.992	99.963	20.047	3.655	0.504
127.000	141.664	79.987	19.991	99.958	20.045	3.773	0.457
127.500	141.893	79.989	19.991	99.956	20.047	3.662	0.441
128.000	142.177	79.991	19.992	99.952	20.044	3.847	0.483
128.500	142.412	79.989	19.992	99.945	20.045	3.762	0.516
129.000	142.667	79.991	19.993	99.938	20.046	3.720	0.504
129.500	142.971	79.991	19.992	99.932	20.048	3.601	0.524
130.000	143.230	79.991	19.992	99.928	20.048	3.556	0.561
130.500	143.443	79.990	19.990	99.931	20.046	3.698	0.518
131.000	143.723	79.990	19.991	99.933	20.047	3.611	0.483
131.500	143.978	79.990	19.991	99.932	20.051	3.363	0.514
132.000	144.182	79.989	19.992	99.933	20.050	3.479	0.497
132.500	144.440	79.990	19.993	99.936	20.050	3.447	0.461
133.000	144.674	79.991	19.992	99.935	20.051	3.394	0.477
133.500	144.955	79.993	19.992	99.935	20.050	3.454	0.504
134.000	145.186	79.990	19.992	99.935	20.051	3.388	0.513
134.500	145.406	79.990	19.991	99.938	20.052	3.293	0.481
135.000	145.695	79.991	19.991	99.940	20.050	3.445	0.480
135.500	145.937	79.990	19.992	99.942	20.050	3.472	0.520
136.000	146.161	79.991	19.992	99.947	20.051	3.383	0.498
136.500	146.422	79.989	19.992	99.955	20.047	3.651	0.476
137.000	146.679	79.989	19.991	99.959	20.050	3.425	0.502
137.500	146.906	79.990	19.993	99.959	20.053	3.255	0.501
138.000	147.212	79.987	19.992	99.960	20.055	3.160	0.508
138.500	147.446	79.988	19.992	99.954	20.048	3.582	0.537
139.000	147.677	79.989	19.992	99.946	20.048	3.570	0.502
139.500	147.946	79.989	19.994	99.938	20.050	3.452	0.483
140.000	148.228	79.989	19.992	99.933	20.049	3.518	0.526
140.500	148.482	79.987	19.992	99.931	20.048	3.565	0.544
141.000	148.686	79.987	19.993	99.929	20.047	3.612	0.497
141.500	148.963	79.987	19.993	99.929	20.046	3.722	0.469
142.000	149.242	79.986	19.994	99.929	20.048	3.559	0.518
142.500	149.470	79.987	19.993	99.926	20.046	3.676	0.531
143.000	149.749	79.985	19.992	99.920	20.046	3.689	0.507
143.500	150.012	79.986	19.994	99.920	20.045	3.734	0.525
144.000	150.272	79.986	19.993	99.920	20.049	3.536	0.533
144.500	150.529	79.988	19.994	99.924	20.049	3.536	0.520
145.000	150.768	79.986	19.995	99.906	20.042	3.922	0.506
145.500	151.028	79.988	19.994	99.877	20.048	3.565	0.498
146.000	151.304	79.988	19.994	99.857	20.050	3.460	0.518
146.500	151.546	79.987	19.993	99.846	20.048	3.600	0.527
147.000	151.831	79.985	19.994	99.843	20.048	3.560	0.522
147.500	152.069	79.987	19.994	99.894	20.051	3.404	0.525
148.000	152.324	79.985	19.995	99.941	20.050	3.444	0.508
148.500	152.577	79.987	19.994	99.962	20.049	3.540	0.501
149.000	152.841	79.988	19.995	99.972	20.049	3.540	0.512
149.500	153.112	79.988	19.994	99.970	20.050	3.458	0.526
150.000	153.339	79.987	19.994	99.937	20.050	3.480	0.517
150.500	153.597	79.987	19.994	99.919	20.055	3.162	0.491
151.000	153.848	79.987	19.994	99.917	20.055	3.151	0.497
151.500	154.074	79.987	19.994	99.918	20.049	3.484	0.493
152.000	154.343	79.987	19.993	99.918	20.050	3.444	0.486
152.500	154.567	79.988	19.994	99.919	20.051	3.408	0.494
153.000	154.812	79.987	19.993	99.919	20.051	3.369	0.480
153.500	155.056	79.987	19.994	99.920	20.057	2.995	0.479
154.000	155.353	79.987	19.993	99.923	20.053	3.275	0.515
154.500	155.559	79.987	19.994	99.924	20.051	3.378	0.522
155.000	155.845	79.989	19.995	99.924	20.048	3.551	0.498
155.500	156.079	79.987	19.994	99.925	20.051	3.374	0.506
156.000	156.357	79.986	19.993	99.923	20.051	3.368	0.517
156.500	156.590	79.989	19.994	99.919	20.051	3.378	0.512
157.000	156.845	79.989	19.994	99.919	20.051	3.371	0.499
157.500	157.097	79.987	19.992	99.919	20.050	3.430	0.497
158.000	157.377	79.987	19.994	99.921	20.054	3.189	0.520
158.500	157.630	79.988	19.992	99.928	20.050	3.480	0.533
159.000	157.910	79.988	19.994	99.936	20.052	3.319	0.533
159.500	158.140	79.988	19.993	99.944	20.050	3.423	0.521
160.000	158.391	79.986	19.992	99.947	20.050	3.469	0.495
160.500	158.629	79.988	19.993	99.944	20.054	3.175	0.485
161.000	158.900	79.989	19.992	99.933	20.055	3.133	0.499
161.500	159.153	79.987	19.993	99.918	20.053	3.288	0.517
162.000	159.411	79.987	19.994	99.904	20.054	3.201	0.517
162.500	159.627	79.987	19.993	99.896	20.053	3.291	0.492
163.000	159.928	79.986	19.992	99.895	20.053	3.233	0.496
163.501	160.172	79.988	19.994	99.896	20.052	3.306	0.531
164.000	160.423	79.986	19.992	99.895	20.050	3.470	0.520
164.500	160.698	79.987	19.994	99.891	20.054	3.204	0.511
165.000	160.927	79.988	19.993	99.889	20.052	3.328	0.515
165.500	161.174	79.988	19.994	99.893	20.049	3.495	0.490
166.000	161.417	79.987	19.993	99.862	20.050	3.437	0.483
166.500	161.720	79.986	19.995	99.831	20.049	3.535	0.518
167.000	161.958	79.987	19.993	99.812	20.050	3.446	0.543
167.500	162.196	79.987	19.994	99.798	20.054	3.209	0.508
168.000	162.445	79.986	19.995	99.784	20.050	3.478	0.481
168.500	162.650	79.988	19.994	99.816	20.052	3.338	0.471
169.000	162.939	79.988	19.994	99.879	20.049	3.487	0.474
169.500	163.183	79.988	19.994	99.936	20.055	3.125	0.513
170.000	163.446	79.988	19.993	99.967	20.055	3.154	0.520
170.500	163.708	79.988	19.996	99.979	20.053	3.266	0.516
171.000	163.977	79.986	19.994	99.982	20.052	3.333	0.528
171.500	164.169	79.987	19.996	99.954	20.054	3.189	0.496
172.000	164.443	79.988	19.994	99.919	20.055	3.134	0.464
172.500	164.724	79.986	19.995	99.905	20.052	3.350	0.511
173.000	164.978	79.986	19.993	99.905	20.051	3.404	0.545
173.500	165.214	79.986	19.995	99.909	20.054	3.190	0.512
174.000	165.488	79.988	19.994	99.920	20.057	2.983	0.500
174.500	165.752	79.987	19.996	99.933	20.058	2.965	0.524
175.000	166.021	79.987	19.995	99.945	20.056	3.041	0.536
175.500	166.284	79.987	19.996	99.948	20.055	3.150	0.533
176.000	166.517	79.986	19.996	99.944	20.059	2.885	0.514
176.500	166.777	79.987	19.995	99.934	20.057	3.012	0.494
177.000	167.038	79.986	19.995	99.919	20.058	2.961	0.507
177.500	167.333	79.986	19.993	99.907	20.056	3.048	0.539
178.000	167.511	79.986	19.994	99.901	20.059	2.912	0.515
178.500	167.821	79.987	19.996	99.897	20.058	2.976	0.480
179.000	168.051	79.986	19.994	99.892	20.055	3.132	0.514
179.500	168.281	79.988	19.992	99.892	20.056	3.094	0.500
180.000	168.552	79.986	19.994	99.888	20.057	3.039	0.481
180.500	168.803	79.988	19.994	99.883	20.059	2.886	0.512
181.000	169.093	79.987	19.994	99.881	20.056	3.091	0.531
181.500	169.312	79.987	19.992	99.886	20.059	2.903	0.525
182.000	169.566	79.988	19.993	99.894	20.060	2.804	0.491
182.500	169.825	79.988	19.993	99.903	20.057	3.039	0.493
183.000	170.068	79.989	19.993	99.915	20.059	2.915	0.508
183.500	170.323	79.987	19.993	99.891	20.058	2.945	0.500
184.000	170.595	79.989	19.993	99.854	20.059	2.879	0.512
184.500	170.793	79.988	19.993	99.828	20.059	2.858	0.499
185.000	171.087	79.987	19.993	99.815	20.059	2.900	0.481
185.500	171.284	79.989	19.993	99.802	20.057	2.989	0.491
186.000	171.555	79.987	19.993	99.825	20.056	3.050	0.479
186.500	171.799	79.989	19.993	99.857	20.060	2.820	0.492
187.000	172.013	79.988	19.992	99.901	20.060	2.833	0.487
187.500	172.323	79.989	19.992	99.936	20.055	3.135	0.491
188.000	172.541	79.989	19.994	99.945	20.058	2.929	0.526
188.500	172.813	79.990	19.992	99.952	20.056	3.067	0.509
189.000	173.033	79.988	19.993	99.953	20.057	2.983	0.491
189.500	173.318	79.989	19.992	99.924	20.057	3.011	0.499
190.000	173.571	79.990	19.994	99.895	20.056	3.094	0.522
190.500	173.826	79.989	19.993	99.886	20.056	3.050	0.523
191.000	174.050	79.988	19.993	99.880	20.054	3.191	0.494
191.500	174.287	79.988	19.993	99.879	20.058	2.932	0.470
192.000	174.593	79.989	19.994	99.881	20.058	2.952	0.502
192.500	174.814	79.989	19.992	99.881	20.057	3.010	0.535
193.000	175.031	79.988	19.995	99.881	20.058	2.926	0.482
193.500	175.336	79.990	19.992	99.880	20.056	3.090	0.480
194.000	175.506	79.988	19.993	99.880	20.057	3.010	0.498
194.500	175.815	79.989	19.993	99.880	20.058	2.926	0.477
195.000	175.994	79.988	19.993	99.880	20.055	3.114	0.484
195.500	176.297	79.988	19.993	99.883	20.059	2.907	0.485
196.000	176.531	79.990	19.992	99.890	20.055	3.147	0.509
196.500	176.771	79.987	19.992	99.898	20.057	3.022	0.505
197.001	177.045	79.987	19.993	99.908	20.056	3.090	0.494
197.500	177.279	79.988	19.992	99.917	20.058	2.977	0.511
198.000	177.540	79.988	19.991	99.897	20.058	2.966	0.502
198.500	177.781	79.987	19.992	99.870	20.060	2.843	0.499
199.000	178.037	79.986	19.993	99.847	20.055	3.136	0.499
199.500	178.287	79.987	19.992	99.829	20.060	2.841	0.501
200.000	178.509	79.986	19.995	99.819	20.058	2.947	0.489
200.500	178.782	79.988	19.993	99.844	20.056	3.043	0.483
201.000	179.002	79.988	19.994	99.874	20.059	2.906	0.494
201.500	179.254	79.988	19.995	99.901	20.057	2.993	0.483
202.000	179.497	79.989	19.992	99.920	20.056	3.064	0.484
202.500	179.718	79.987	19.994	99.929	20.059	2.895	0.480
203.000	179.977	79.987	19.992	99.929	20.054	3.180	0.472
203.500	180.218	79.986	19.994	99.927	20.054	3.200	0.490
204.000	180.461	79.988	19.992	99.923	20.057	2.981	0.492
204.500	180.717	79.987	19.993	99.920	20.054	3.200	0.491
205.000	180.972	79.987	19.992	99.920	20.051	3.410	0.505
205.500	181.232	79.988	19.994	99.914	20.057	3.019	0.513
206.000	181.488	79.989	19.992	99.906	20.055	3.111	0.515
206.500	181.717	79.991	19.994	99.895	20.054	3.169	0.501
207.000	181.977	79.988	19.992	99.882	20.052	3.304	0.488
207.500	182.222	79.990	19.993	99.874	20.053	3.241	0.497
208.000	182.492	79.989	19.993	99.873	20.056	3.098	0.510
208.500	182.653	79.987	19.992	99.865	20.055	3.132	0.473
209.000	182.910	79.989	19.994	99.867	20.053	3.243	0.424
209.500	183.195	79.990	19.993	99.870	20.055	3.154	0.480
210.000	183.420	79.988	19.991	99.871	20.055	3.147	0.526
210.500	183.644	79.990	19.993	99.873	20.051	3.364	0.479
211.000	183.900	79.990	19.993	99.880	20.053	3.234	0.465
211.500	184.150	79.991	19.992	99.880	20.051	3.379	0.493
212.000	184.426	79.989	19.991	99.873	20.053	3.273	0.516
212.500	184.671	79.990	19.990	99.865	20.054	3.184	0.524
213.000	184.919	79.990	19.992	99.860	20.057	3.022	0.507
213.500	185.125	79.991	19.993	99.860	20.055	3.150	0.473
214.000	185.399	79.990	19.992	99.865	20.055	3.164	0.467
214.500	185.645	79.992	19.994	99.876	20.056	3.043	0.500
215.000	185.902	79.990	19.995	99.883	20.056	3.077	0.512
215.500	186.142	79.992	19.992	99.886	20.053	3.285	0.500
216.000	186.382	79.990	19.992	99.886	20.052	3.314	0.488
216.501	186.614	79.989	19.992	99.886	20.051	3.355	0.476
217.000	186.873	79.991	19.991	99.889	20.053	3.260	0.482
217.500	187.117	79.990	19.994	99.893	20.053	3.260	0.497
218.000	187.380	79.991	19.994	99.895	20.052	3.326	0.505
218.500	187.574	79.988	19.993	99.900	20.054	3.174	0.482
219.000	187.822	79.989	19.993	99.903	20.049	3.511	0.450
219.500	188.116	79.989	19.993	99.897	20.051	3.398	0.492
220.000	188.302	79.990	19.992	99.896	20.054	3.176	0.511
220.500	188.573	79.989	19.992	99.898	20.052	3.314	0.468
221.000	188.830	79.988	19.993	99.894	20.053	3.248	0.492
221.500	189.115	79.990	19.992	99.887	20.053	3.280	0.535
222.000	189.353	79.988	19.992	99.885	20.052	3.295	0.533
222.500	189.588	79.987	19.992	99.883	20.053	3.246	0.498
223.000	189.838	79.988	19.993	99.879	20.054	3.206	0.479
223.500	190.083	79.988	19.993	99.876	20.054	3.225	0.490
224.000	190.294	79.988	19.992	99.876	20.057	3.017	0.476
224.500	190.568	79.987	19.994	99.876	20.053	3.290	0.470
225.000	190.842	79.989	19.994	99.876	20.056	3.079	0.516
225.500	191.051	79.989	19.993	99.877	20.053	3.251	0.516
226.000	191.327	79.989	19.994	99.886	20.053	3.266	0.484
226.500	191.583	79.988	19.994	99.891	20.050	3.434	0.508
227.000	191.837	79.987	19.994	99.892	20.053	3.278	0.521
227.500	192.077	79.987	19.994	99.892	20.053	3.289	0.502
228.000	192.328	79.987	19.994	99.892	20.051	3.355	0.492
228.500	192.555	79.986	19.995	99.886	20.051	3.382	0.484
229.000	192.817	79.987	19.994	99.882	20.054	3.215	0.484
229.500	193.022	79.985	19.994	99.885	20.052	3.335	0.478
230.000	193.299	79.987	19.995	99.887	20.056	3.091	0.474
230.500	193.525	79.987	19.993	99.887	20.057	3.031	0.493
231.000	193.763	79.986	19.993	99.887	20.053	3.246	0.483
231.500	194.027	79.985	19.993	99.885	20.053	3.277	0.483
232.000	194.241	79.988	19.994	99.881	20.050	3.449	0.490
232.500	194.519	79.988	19.994	99.879	20.052	3.302	0.485
233.000	194.722	79.988	19.992	99.878	20.050	3.439	0.487
233.500	194.950	79.986	19.993	99.878	20.051	3.389	0.456
234.000	195.270	79.989	19.993	99.877	20.048	3.582	0.489
234.500	195.470	79.986	19.994	99.877	20.052	3.326	0.534
235.001	195.748	79.987	19.993	99.877	20.051	3.377	0.499
235.500	195.940	79.985	19.993	99.878	20.052	3.304	0.474
236.000	196.198	79.988	19.993	99.878	20.050	3.456	0.460
236.500	196.450	79.987	19.994	99.882	20.048	3.563	0.480
237.000	196.709	79.988	19.995	99.883	20.053	3.251	0.510
237.500	196.968	79.987	19.993	99.885	20.053	3.283	0.514
238.000	197.228	79.987	19.994	99.885	20.052	3.317	0.519
238.500	197.419	79.987	19.994	99.885	20.054	3.226	0.485
239.000	197.682	79.986	19.994	99.882	20.051	3.395	0.452
239.500	197.926	79.988	19.993	99.880	20.053	3.237	0.481
240.000	198.166	79.987	19.994	99.881	20.053	3.285	0.496
240.500	198.438	79.986	19.993	99.880	20.049	3.484	0.498
241.000	198.680	79.987	19.993	99.881	20.051	3.361	0.513
241.500	198.929	79.987	19.995	99.881	20.051	3.390	0.502
242.000	199.206	79.988	19.993	99.882	20.052	3.312	0.508
242.500	199.439	79.987	19.993	99.882	20.049	3.503	0.518
243.000	199.690	79.988	19.992	99.883	20.047	3.628	0.497
243.500	199.920	79.989	19.993	99.884	20.052	3.347	0.482
244.000	200.176	79.989	19.993	99.884	20.049	3.521	0.483
244.500	200.435	79.988	19.992	99.887	20.048	3.550	0.501
245.000	200.686	79.988	19.993	99.886	20.046	3.702	0.513
245.500	200.920	79.987	19.994	99.885	20.044	3.806	0.498
246.000	201.197	79.986	19.994	99.885	20.046	3.675	0.498
246.500	201.436	79.989	19.991	99.885	20.044	3.820	0.513
247.000	201.677	79.988	19.994	99.882	20.048	3.593	0.498
247.500	201.910	79.987	19.992	99.882	20.044	3.827	0.477
248.000	202.113	79.986	19.993	99.878	20.042	3.977	0.455
248.500	202.421	79.988	19.992	99.874	20.042	3.967	0.474
249.000	202.644	79.985	19.994	99.866	20.040	4.096	0.521
249.500	202.875	79.986	19.994	99.861	20.043	3.912	0.492
250.000	203.116	79.986	19.995	99.860	20.045	3.780	0.463
250.500	203.379	79.988	19.991	99.864	20.041	4.007	0.489
251.000	203.675	79.987	19.995	99.867	20.042	3.916	0.532
251.500	203.926	79.986	19.994	99.869	20.041	4.024	0.553
252.000	204.135	79.986	19.994	99.867	20.041	3.980	0.503
252.500	204.391	79.987	19.994	99.862	20.038	4.188	0.462
253.000	204.643	79.987	19.994	99.863	20.042	3.966	0.487
253.500	204.923	79.987	19.993	99.869	20.041	4.026	0.520
254.000	205.145	79.987	19.994	99.877	20.041	4.019	0.517
254.501	205.392	79.985	19.993	99.884	20.038	4.188	0.485
255.000	205.624	79.985	19.993	99.891	20.041	4.031	0.474
255.500	205.875	79.986	19.995	99.897	20.041	3.995	0.481
256.000	206.136	79.985	19.994	99.898	20.041	3.985	0.497
256.500	206.398	79.987	19.994	99.899	20.043	3.897	0.518
257.000	206.608	79.984	19.994	99.899	20.037	4.256	0.497
257.500	206.890	79.987	19.994	99.900	20.040	4.078	0.482
258.000	207.119	79.985	19.994	99.898	20.038	4.164	0.502
258.500	207.364	79.986	19.995	99.896	20.039	4.103	0.492
259.000	207.626	79.986	19.994	99.898	20.038	4.178	0.490
259.500	207.848	79.987	19.995	99.897	20.038	4.217	0.495
260.000	208.125	79.988	19.995	99.890	20.033	4.517	0.492
260.500	208.319	79.987	19.995	99.887	20.035	4.408	0.485
261.000	208.604	79.987	19.995	99.881	20.038	4.216	0.475
261.500	208.862	79.984	19.996	99.879	20.036	4.328	0.511
262.000	209.077	79.986	19.996	99.878	20.036	4.325	0.507
262.500	209.336	79.987	19.995	99.880	20.034	4.415	0.473
263.000	209.574	79.990	19.994	99.880	20.032	4.582	0.485
263.500	209.796	79.989	19.994	99.879	20.031	4.650	0.479
264.000	210.059	79.989	19.995	99.878	20.029	4.743	0.473
264.500	210.293	79.988	19.994	99.880	20.033	4.490	0.491
265.000	210.569	79.988	19.995	99.883	20.034	4.460	0.504
265.500	210.786	79.986	19.995	99.882	20.030	4.663	0.502
266.000	211.056	79.989	19.993	99.880	20.031	4.643	0.489
266.500	211.305	79.988	19.993	99.877	20.032	4.573	0.503
267.000	211.513	79.991	19.994	99.875	20.032	4.589	0.488
267.500	211.799	79.989	19.994	99.874	20.030	4.668	0.475
268.000	212.063	79.988	19.993	99.874	20.028	4.789	0.522
268.500	212.310	79.985	19.995	99.876	20.028	4.812	0.531
269.000	212.551	79.990	19.993	99.879	20.028	4.792	0.499
269.500	212.801	79.991	19.992	99.882	20.029	4.747	0.489
270.000	213.041	79.987	19.994	99.883	20.030	4.677	0.491
270.500	213.300	79.988	19.992	99.884	20.028	4.809	0.494
271.000	213.496	79.987	19.992	99.887	20.031	4.616	0.476
271.500	213.779	79.990	19.993	99.892	20.028	4.845	0.467
272.000	214.060	79.988	19.995	99.892	20.024	5.037	0.522
272.500	214.297	79.989	19.993	99.893	20.029	4.783	0.541
273.000	214.498	79.989	19.994	99.892	20.026	4.928	0.478
273.500	214.781	79.989	19.993	99.890	20.030	4.664	0.461
274.000	214.979	79.989	19.993	99.885	20.027	4.898	0.483
274.500	215.265	79.989	19.994	99.884	20.028	4.826	0.483
275.000	215.510	79.989	19.993	99.883	20.028	4.790	0.507
275.500	215.744	79.988	19.993	99.889	20.027	4.874	0.505
276.000	216.015	79.989	19.992	99.895	20.024	5.037	0.492
276.500	216.245	79.989	19.993	99.897	20.025	5.012	0.503
277.000	216.482	79.988	19.992	99.899	20.021	5.276	0.484
277.500	216.740	79.987	19.993	99.899	20.021	5.235	0.481
278.000	216.979	79.987	19.994	99.892	20.025	4.979	0.496
278.500	217.246	79.989	19.993	99.885	20.020	5.312	0.501
279.000	217.497	79.990	19.993	99.883	20.020	5.324	0.512
279.500	217.741	79.986	19.991	99.879	20.020	5.287	0.507
280.000	218.000	79.989	19.993	99.878	20.021	5.279	0.499
280.500	218.221	79.988	19.993	99.879	20.021	5.228	0.492
281.000	218.458	79.989	19.993	99.878	20.016	5.540	0.469
281.500	218.701	79.989	19.992	99.875	20.018	5.441	0.469
282.000	218.980	79.988	19.993	99.875	20.017	5.483	0.501
282.500	219.209	79.988	19.993	99.875	20.016	5.565	0.514
283.000	219.473	79.989	19.993	99.874	20.015	5.617	0.501
283.500	219.733	79.988	19.992	99.875	20.014	5.684	0.509
284.000	219.963	79.989	19.994	99.877	20.015	5.618	0.507
284.500	220.210	79.989	19.994	99.878	20.013	5.765	0.483
285.000	220.443	79.988	19.993	99.877	20.010	5.967	0.479
285.500	220.708	79.988	19.991	99.876	20.009	5.977	0.489
286.000	220.923	79.988	19.993	99.874	20.006	6.186	0.489
286.500	221.231	79.988	19.992	99.874	20.006	6.201	0.502
287.000	221.448	79.988	19.992	99.874	20.002	6.463	0.524
287.500	221.713	79.990	19.993	99.871	20.003	6.392	0.504
288.000	221.971	79.990	19.993	99.866	20.003	6.358	0.503
288.500	222.200	79.990	19.993	99.868	20.004	6.290	0.504
289.000	222.455	79.990	19.992	99.868	20.002	6.419	0.485
289.500	222.725	79.991	19.991	99.869	20.001	6.511	0.505
290.000	222.988	79.990	19.992	99.874	20.001	6.514	0.529
290.500	223.249	79.990	19.992	99.882	19.998	6.693	0.529
291.000	223.421	79.991	19.994	99.890	20.000	6.551	0.478
291.500	223.706	79.991	19.992	99.891	19.995	6.891	0.445
292.000	223.952	79.991	19.993	99.890	19.997	6.722	0.494
292.500	224.194	79.991	19.994	99.887	19.996	6.804	0.510
293.000	224.494	79.990	19.995	99.883	19.993	7.018	0.515
293.500	224.703	79.989	19.992	99.874	19.994	6.955	0.525
294.000	224.955	79.990	19.992	99.873	19.988	7.295	0.485
294.500	225.197	79.994	19.992	99.879	19.987	7.365	0.478
295.000	225.447	79.993	19.993	99.886	19.990	7.197	0.493
295.500	225.678	79.992	19.993	99.889	19.992	7.053	0.487
296.000	225.887	79.989	19.993	99.890	19.990	7.207	0.460
296.500	226.188	79.990	19.992	99.889	19.990	7.195	0.475
297.000	226.436	79.992	19.994	99.884	19.989	7.258	0.530
297.500	226.677	79.992	19.992	99.880	19.989	7.251	0.519
298.000	226.949	79.992	19.993	99.884	19.985	7.474	0.501
298.500	227.191	79.989	19.994	99.891	19.983	7.622	0.514
299.000	227.411	79.991	19.990	99.893	19.984	7.585	0.488
299.500	227.642	79.991	19.993	99.897	19.982	7.686	0.457
300.000	227.899	79.991	19.992	99.898	19.979	7.893	0.469
300.500	228.120	79.988	19.993	99.892	19.980	7.824	0.483
301.001	228.395	79.989	19.994	99.884	19.980	7.834	0.488
301.501	228.671	79.991	19.993	99.883	19.978	7.918	0.524
302.000	228.943	79.990	19.992	99.879	19.977	7.979	0.549
302.500	229.193	79.988	19.993	99.879	19.974	8.166	0.535
303.000	229.400	79.989	19.993	99.879	19.973	8.266	0.490
303.500	229.684	79.989	19.993	99.880	19.973	8.266	0.474
304.000	229.880	79.988	19.992	99.885	19.972	8.321	0.485
304.500	230.150	79.988	19.992	99.891	19.972	8.319	0.473
305.000	230.393	79.989	19.994	99.897	19.972	8.332	0.489
305.500	230.621	79.988	19.991	99.902	19.971	8.381	0.492
306.000	230.885	79.988	19.992	99.907	19.969	8.501	0.481
306.500	231.143	79.987	19.993	99.910	19.964	8.784	0.507
307.000	231.347	79.989	19.992	99.908	19.968	8.577	0.492
307.500	231.618	79.990	19.993	99.907	19.964	8.785	0.468
308.000	231.878	79.987	19.994	99.910	19.961	9.004	0.503
308.500	232.093	79.987	19.993	99.907	19.960	9.061	0.503
309.000	232.383	79.990	19.992	99.900	19.958	9.162	0.490
309.500	232.631	79.986	19.992	99.895	19.957	9.256	0.521
310.000	232.855	79.988	19.993	99.890	19.958	9.204	0.505
310.500	233.136	79.987	19.993	99.884	19.958	9.199	0.489
311.000	233.374	79.988	19.992	99.884	19.957	9.223	0.512
311.500	233.644	79.988	19.993	99.890	19.953	9.522	0.513
312.000	233.875	79.988	19.993	99.894	19.952	9.570	0.504
312.500	234.153	79.988	19.992	99.896	19.951	9.606	0.505
313.000	234.355	79.987	19.994	99.898	19.945	9.985	0.495
313.500	234.622	79.986	19.992	99.898	19.945	9.987	0.475
314.000	234.893	79.987	19.993	99.899	19.943	10.137	0.504
314.500	235.122	79.988	19.994	99.901	19.940	10.317	0.519
315.000	235.369	79.988	19.994	99.899	19.939	10.361	0.488
315.500	235.604	79.990	19.994	99.897	19.938	10.442	0.479
316.000	235.877	79.987	19.993	99.895	19.933	10.727	0.495
316.500	236.109	79.986	19.992	99.884	19.936	10.564	0.507
317.000	236.338	79.989	19.993	99.873	19.931	10.859	0.483
317.500	236.585	79.989	19.994	99.867	19.927	11.123	0.468
318.000	236.852	79.990	19.993	99.864	19.928	11.038	0.495
318.500	237.117	79.988	19.995	99.864	19.926	11.172	0.523
319.000	237.412	79.989	19.993	99.868	19.928	11.045	0.546
319.500	237.617	79.988	19.993	99.875	19.916	11.774	0.530
320.000	237.886	79.988	19.993	99.879	19.920	11.568	0.487
320.500	238.113	79.988	19.995	99.877	19.919	11.620	0.485
321.000	238.331	79.989	19.994	99.874	19.915	11.836	0.471
321.500	238.592	79.988	19.994	99.869	19.912	12.061	0.462
322.000	238.843	79.989	19.993	99.869	19.907	12.338	0.495
322.500	239.047	79.988	19.994	99.879	19.904	12.582	0.483
323.000	239.361	79.988	19.992	99.892	19.907	12.396	0.486
323.500	239.594	79.987	19.993	99.900	19.904	12.575	0.532
324.000	239.805	79.986	19.994	99.911	19.900	12.771	0.496
324.500	240.089	79.989	19.992	99.915	19.900	12.771	0.470
325.000	240.348	79.986	19.993	99.912	19.900	12.800	0.519
325.500	240.626	79.988	19.992	99.906	19.898	12.949	0.540
326.000	240.859	79.986	19.992	99.903	19.892	13.313	0.524
326.500	241.106	79.987	19.991	99.906	19.894	13.198	0.496
327.000	241.312	79.986	19.995	99.912	19.891	13.384	0.466
327.500	241.567	79.988	19.993	99.917	19.886	13.695	0.457
328.000	241.844	79.988	19.994	99.927	19.886	13.692	0.497
328.500	242.108	79.987	19.992	99.939	19.884	13.823	0.537
329.000	242.342	79.988	19.991	99.943	19.882	13.931	0.520
329.500	242.591	79.989	19.991	99.936	19.881	13.998	0.491
330.000	242.837	79.986	19.992	99.926	19.879	14.110	0.489
330.500	243.094	79.989	19.992	99.916	19.875	14.326	0.499
331.000	243.330	79.987	19.993	99.909	19.874	14.406	0.498
331.500	243.570	79.987	19.993	99.913	19.869	14.721	0.484
332.000	243.816	79.986	19.992	99.920	19.867	14.870	0.481
332.500	244.080	79.987	19.993	99.929	19.861	15.249	0.498
333.000	244.337	79.987	19.993	99.937	19.860	15.307	0.516
333.500	244.578	79.987	19.993	99.943	19.856	15.546	0.510
334.000	244.850	79.986	19.993	99.937	19.854	15.633	0.505
334.500	245.055	79.987	19.992	99.930	19.849	16.000	0.495
335.000	245.313	79.985	19.992	99.927	19.849	15.998	0.470
335.500	245.574	79.986	19.993	99.925	19.842	16.425	0.491
336.000	245.799	79.987	19.994	99.917	19.845	16.252	0.503
336.500	246.031	79.986	19.992	99.915	19.842	16.450	0.471
337.000	246.331	79.986	19.995	99.918	19.839	16.582	0.494
337.500	246.564	79.985	19.994	99.920	19.833	16.983	0.533
338.000	246.803	79.987	19.992	99.920	19.832	17.065	0.503
338.500	247.083	79.986	19.993	99.920	19.827	17.355	0.495
339.000	247.348	79.987	19.992	99.918	19.823	17.590	0.532
339.500	247.608	79.987	19.993	99.917	19.820	17.800	0.535
340.000	247.823	79.985	19.994	99.910	19.819	17.864	0.500
340.500	248.087	79.986	19.992	99.903	19.813	18.207	0.477
341.000	248.329	79.987	19.994	99.896	19.812	18.260	0.492
341.500	248.576	79.988	19.994	99.890	19.810	18.414	0.497
342.000	248.842	79.988	19.993	99.887	19.803	18.837	0.501
342.500	249.110	79.988	19.994	99.893	19.801	18.993	0.524
343.000	249.357	79.988	19.992	99.899	19.797	19.245	0.525
343.500	249.580	79.989	19.994	99.902	19.796	19.330	0.492
344.000	249.845	79.989	19.994	99.900	19.788	19.792	0.479
344.500	250.111	79.988	19.992	99.896	19.788	19.819	0.510
345.000	250.362	79.987	19.994	99.888	19.786	19.883	0.524
345.500	250.624	79.988	19.993	99.888	19.779	20.355	0.515
346.000	250.892	79.988	19.993	99.896	19.777	20.489	0.521
346.500	251.140	79.990	19.992	99.911	19.770	20.929	0.523
347.000	251.384	79.988	19.995	99.928	19.767	21.078	0.504
347.500	251.643	79.990	19.994	99.950	19.762	21.427	0.497
348.000	251.876	79.988	19.994	99.968	19.763	21.318	0.497
348.500	252.133	79.987	19.995	99.976	19.758	21.645	0.491
349.000	252.398	79.989	19.994	99.977	19.757	21.742	0.506
349.500	252.635	79.990	19.993	99.985	19.752	22.032	0.512
350.000	252.859	79.988	19.994	99.972	19.744	22.536	0.481
350.500	253.108	79.989	19.994	99.933	19.746	22.409	0.467
351.000	253.403	79.989	19.995	99.891	19.740	22.776	0.509
351.501	253.641	79.990	19.994	99.864	19.737	22.975	0.539
352.000	253.856	79.989	19.994	99.844	19.735	23.097	0.493
352.500	254.124	79.989	19.993	99.858	19.726	23.642	0.468
353.000	254.383	79.990	19.994	99.918	19.723	23.814	0.506
353.500	254.653	79.990	19.994	99.983	19.720	24.016	0.528
354.000	254.886	79.990	19.994	100.009	19.717	24.217	0.516
354.500	255.173	79.990	19.993	100.013	19.713	24.497	0.511
355.000	255.435	79.989	19.995	100.001	19.705	25.005	0.534
355.500	255.666	79.988	19.995	99.972	19.704	25.045	0.521
356.000	255.928	79.989	19.993	99.942	19.697	25.501	0.494
356.500	256.170	79.990	19.994	99.943	19.692	25.768	0.498
357.000	256.391	79.989	19.994	99.950	19.687	26.103	0.483
357.500	256.662	79.988	19.993	99.954	19.681	26.464	0.478
358.000	256.906	79.990	19.994	99.948	19.679	26.625	0.504
358.500	257.165	79.990	19.994	99.943	19.674	26.901	0.509
359.000	257.430	79.990	19.992	99.935	19.667	27.340	0.513
359.500	257.632	79.989	19.992	99.931	19.659	27.879	0.496
360.000	257.892	79.988	19.994	99.931	19.656	28.072	0.465
360.500	258.175	79.988	19.995	99.937	19.652	28.293	0.502
361.000	258.434	79.990	19.992	99.945	19.649	28.490	0.542
361.500	258.685	79.990	19.994	99.952	19.640	29.054	0.526
362.000	258.958	79.987	19.993	99.956	19.633	29.454	0.517
362.500	259.211	79.988	19.993	99.948	19.631	29.583	0.526
363.000	259.458	79.992	19.994	99.898	19.626	29.907	0.513
363.500	259.732	79.989	19.994	99.903	19.621	30.244	0.510
364.000	259.970	79.990	19.992	99.886	19.614	30.644	0.517
364.500	260.215	79.989	19.995	99.896	19.609	30.995	0.497
365.000	260.483	79.991	19.993	99.906	19.603	31.323	0.497
365.500	260.733	79.988	19.992	99.976	19.599	31.599	0.515
366.000	260.992	79.986	19.993	100.022	19.595	31.835	0.513
366.500	261.230	79.989	19.992	100.011	19.593	31.977	0.503
367.001	261.506	79.987	19.992	99.988	19.584	32.553	0.506
367.500	261.768	79.987	19.993	99.985	19.580	32.753	0.526
368.000	261.999	79.989	19.993	99.971	19.574	33.156	0.516
368.500	262.283	79.991	19.993	99.942	19.573	33.223	0.504
369.000	262.492	79.987	19.992	100.001	19.561	33.955	0.504
369.500	262.760	79.989	19.994	100.047	19.558	34.184	0.485
370.000	263.081	79.989	19.993	100.067	19.551	34.608	0.533
370.500	263.311	79.990	19.993	100.075	19.548	34.766	0.569
371.000	263.578	79.989	19.993	100.062	19.543	35.068	0.524
371.500	263.833	79.991	19.992	100.039	19.535	35.573	0.510
372.001	264.076	79.990	19.991	100.015	19.533	35.707	0.510
372.500	264.324	79.991	19.991	100.006	19.524	36.266	0.494
373.000	264.591	79.992	19.993	100.001	19.517	36.682	0.503
373.500	264.831	79.993	19.991	100.001	19.514	36.897	0.511
374.000	265.092	79.990	19.991	100.001	19.506	37.420	0.504
374.500	265.344	79.992	19.992	100.001	19.500	37.784	0.507
375.000	265.592	79.989	19.991	100.003	19.492	38.302	0.507
375.500	265.859	79.989	19.992	100.004	19.488	38.535	0.507
376.000	266.122	79.990	19.992	100.004	19.477	39.241	0.522
376.500	266.378	79.989	19.994	100.003	19.472	39.524	0.525
377.000	266.627	79.990	19.991	100.003	19.467	39.838	0.513
377.500	266.894	79.990	19.992	100.003	19.460	40.266	0.511
378.000	267.123	79.991	19.992	100.003	19.454	40.663	0.506
378.500	267.405	79.991	19.993	100.005	19.448	41.035	0.504
379.001	267.633	79.990	19.992	100.004	19.440	41.524	0.510
379.500	267.921	79.990	19.993	100.004	19.436	41.749	0.512
380.000	268.147	79.989	19.992	100.006	19.431	42.098	0.515
380.500	268.400	79.988	19.993	100.012	19.424	42.552	0.497
381.000	268.691	79.990	19.992	100.017	19.418	42.891	0.512
381.500	268.896	79.989	19.991	100.025	19.406	43.624	0.520
382.000	269.175	79.989	19.992	100.028	19.400	44.002	0.490
382.500	269.420	79.990	19.991	100.025	19.393	44.432	0.504
383.000	269.679	79.987	19.992	100.018	19.389	44.719	0.514
383.500	269.943	79.988	19.990	100.010	19.379	45.349	0.514
384.000	270.212	79.989	19.992	100.002	19.373	45.743	0.528
384.500	270.460	79.988	19.993	100.001	19.367	46.129	0.525
385.000	270.723	79.988	19.992	100.006	19.362	46.424	0.514
385.500	270.992	79.988	19.993	100.012	19.354	46.935	0.521
386.000	271.262	79.988	19.993	100.020	19.344	47.547	0.536
386.500	271.518	79.987	19.993	100.025	19.339	47.829	0.533
387.000	271.771	79.988	19.992	100.024	19.333	48.210	0.517
387.500	272.017	79.987	19.993	100.020	19.325	48.731	0.504
388.000	272.264	79.988	19.992	100.016	19.321	48.998	0.496
388.500	272.495	79.986	19.992	100.009	19.310	49.674	0.486
389.000	272.767	79.987	19.991	100.006	19.304	50.012	0.491
389.500	273.032	79.987	19.993	100.012	19.296	50.509	0.520
390.000	273.305	79.987	19.993	100.018	19.289	50.974	0.537
390.500	273.540	79.987	19.993	100.024	19.285	51.199	0.523
391.000	273.811	79.986	19.993	100.030	19.275	51.840	0.507
391.500	274.050	79.986	19.994	100.032	19.270	52.133	0.508
392.000	274.320	79.986	19.992	100.025	19.264	52.527	0.510
392.500	274.582	79.987	19.992	100.022	19.260	52.807	0.520
393.000	274.873	79.987	19.991	100.022	19.252	53.278	0.543
393.500	275.107	79.988	19.993	100.024	19.246	53.634	0.539
394.000	275.359	79.988	19.990	100.036	19.236	54.282	0.505
394.500	275.631	79.988	19.992	100.050	19.229	54.697	0.505
395.000	275.844	79.986	19.991	100.058	19.225	55.004	0.505
395.500	276.058	79.986	19.991	100.061	19.217	55.497	0.456
396.000	276.368	79.988	19.993	100.066	19.210	55.924	0.476
396.500	276.639	79.987	19.993	100.066	19.202	56.419	0.553
397.000	276.905	79.986	19.991	100.067	19.197	56.744	0.559
397.500	277.141	79.990	19.997	100.067	19.189	57.250	0.519
398.000	277.434	79.988	19.997	100.070	19.182	57.671	0.516
398.500	277.643	79.990	19.995	100.064	19.177	57.983	0.516
399.000	277.905	79.986	19.994	100.058	19.168	58.549	0.486
399.500	278.178	79.987	19.993	100.050	19.162	58.887	0.503
400.000	278.407	79.989	19.993	100.046	19.157	59.194	0.518
400.500	278.677	79.990	19.994	100.044	19.150	59.658	0.500
401.000	278.905	79.993	19.994	100.045	19.144	60.000	0.498
401.500	279.180	79.993	19.994	100.046	19.136	60.528	0.500
402.000	279.447	79.991	19.994	100.050	19.130	60.897	0.523
402.500	279.656	79.996	19.994	100.054	19.121	61.487	0.509
403.000	279.935	79.992	19.994	100.057	19.115	61.847	0.482
403.500	280.168	79.993	19.994	100.058	19.112	62.016	0.500
404.000	280.434	79.990	19.994	100.063	19.108	62.267	0.506
404.500	280.724	79.991	19.993	100.067	19.098	62.917	0.527
405.000	280.990	79.991	19.991	100.071	19.094	63.177	0.556
405.500	281.234	79.991	19.994	100.072	19.083	63.824	0.533
406.000	281.486	79.988	19.993	100.081	19.081	63.924	0.503
406.500	281.731	79.988	19.994	100.088	19.074	64.363	0.496
407.001	281.982	79.988	19.993	100.094	19.067	64.815	0.496
407.500	282.277	79.990	19.993	100.100	19.061	65.170	0.521
408.000	282.513	79.989	19.994	100.100	19.057	65.453	0.539
408.500	282.771	79.992	19.994	100.094	19.050	65.923	0.512
409.000	283.001	79.988	19.994	100.086	19.048	66.062	0.491
409.500	283.234	79.989	19.994	100.081	19.039	66.599	0.475
410.000	283.472	79.988	19.994	100.072	19.036	66.799	0.467
410.500	283.768	79.988	19.993	100.072	19.029	67.244	0.503
411.000	284.010	79.988	19.992	100.073	19.026	67.398	0.536
411.500	284.260	79.987	19.993	100.074	19.023	67.621	0.515
412.000	284.512	79.988	19.994	100.074	19.018	67.916	0.498
412.500	284.792	79.987	19.992	100.076	19.012	68.261	0.517
413.000	285.045	79.988	19.992	100.076	19.011	68.355	0.532
413.500	285.300	79.987	19.992	100.077	19.004	68.766	0.521
414.000	285.578	79.987	19.992	100.078	19.000	68.994	0.521
414.500	285.777	79.987	19.993	100.082	18.995	69.315	0.505
415.000	286.108	79.987	19.993	100.088	18.995	69.351	0.504
415.500	286.347	79.989	19.994	100.096	18.991	69.590	0.550
416.000	286.597	79.988	19.993	100.080	18.985	69.931	0.529
416.500	286.809	79.988	19.994	100.054	18.983	70.087	0.475
417.000	287.091	79.986	19.993	100.031	18.981	70.212	0.478
417.500	287.349	79.986	19.995	100.015	18.981	70.202	0.517
418.000	287.613	79.987	19.993	100.000	18.978	70.364	0.531
418.500	287.878	79.986	19.993	100.013	18.978	70.414	0.526
419.000	288.111	79.989	19.994	100.041	18.972	70.750	0.513
419.500	288.358	79.988	19.994	100.087	18.972	70.768	0.489
420.000	288.597	79.987	19.993	100.114	18.968	71.010	0.483
420.500	288.844	79.986	19.995	100.127	18.967	71.087	0.486
421.000	289.086	79.987	19.993	100.130	18.964	71.270	0.487
421.500	289.312	79.989	19.993	100.127	18.967	71.082	0.479
422.000	289.627	79.986	19.993	100.098	18.967	71.044	0.504
422.500	289.903	79.988	19.994	100.082	18.967	71.083	0.566
423.000	290.122	79.987	19.994	100.076	18.965	71.191	0.543
423.500	290.417	79.987	19.994	100.075	18.968	71.009	0.505
424.000	290.655	79.989	19.996	100.075	18.968	70.962	0.524
424.500	290.917	79.987	19.995	100.074	18.972	70.742	0.517
425.000	291.208	79.989	19.994	100.073	18.972	70.715	0.526
425.500	291.467	79.988	19.994	100.071	18.975	70.534	0.551
426.000	291.708	79.988	19.997	100.072	18.979	70.326	0.525
426.500	291.922	79.988	19.994	100.071	18.985	69.931	0.477
427.000	292.188	79.987	19.995	100.064	18.989	69.637	0.467
427.500	292.458	79.987	19.993	100.061	18.993	69.385	0.508
428.000	292.705	79.988	19.996	100.060	18.998	69.115	0.527
428.500	292.964	79.990	19.993	100.059	19.005	68.689	0.512
429.000	293.229	79.990	19.995	100.059	19.014	68.084	0.515
429.500	293.482	79.988	19.994	100.065	19.019	67.784	0.521
430.000	293.752	79.987	19.992	100.070	19.030	67.073	0.520
430.500	293.981	79.987	19.995	100.071	19.034	66.825	0.511
431.000	294.273	79.988	19.994	100.072	19.046	66.053	0.511
431.500	294.547	79.988	19.995	100.072	19.056	65.449	0.544
432.000	294.744	79.989	19.994	100.072	19.067	64.773	0.519
432.500	294.981	79.988	19.993	100.065	19.077	64.184	0.452
433.000	295.284	79.989	19.995	100.060	19.089	63.484	0.487
433.500	295.483	79.988	19.995	100.053	19.101	62.719	0.521
434.000	295.798	79.989	19.995	100.045	19.115	61.877	0.508
434.500	296.007	79.989	19.993	100.038	19.128	61.023	0.519
435.000	296.256	79.989	19.994	100.036	19.140	60.283	0.491
435.500	296.556	79.988	19.994	100.034	19.153	59.478	0.504
436.000	296.787	79.988	19.994	100.034	19.169	58.470	0.540
436.500	297.004	79.988	19.995	100.030	19.182	57.629	0.490
437.000	297.322	79.989	19.995	100.027	19.195	56.839	0.491
437.500	297.554	79.989	19.993	100.023	19.210	55.885	0.542
438.000	297.779	79.988	19.994	100.015	19.222	55.136	0.504
438.500	298.075	79.986	19.992	100.009	19.238	54.157	0.489
439.000	298.331	79.989	19.992	100.012	19.250	53.381	0.536
439.500	298.573	79.987	19.993	100.008	19.261	52.673	0.524
440.000	298.835	79.988	19.993	100.008	19.278	51.649	0.501
440.500	299.094	79.988	19.994	99.990	19.288	51.005	0.513
441.000	299.326	79.989	19.993	99.966	19.302	50.102	0.506
441.500	299.599	79.988	19.993	99.958	19.308	49.715	0.498
442.000	299.836	79.988	19.993	99.958	19.325	48.693	0.508
442.500	300.090	79.988	19.992	99.961	19.336	47.989	0.501
443.000	300.341	79.988	19.993	99.988	19.345	47.415	0.498
443.500	300.627	79.989	19.992	100.023	19.354	46.847	0.521
444.000	300.882	79.987	19.992	100.060	19.360	46.477	0.539
444.500	301.141	79.989	19.991	100.086	19.372	45.745	0.527
445.000	301.404	79.988	19.992	100.093	19.379	45.315	0.518
445.500	301.615	79.988	19.992	100.093	19.388	44.762	0.498
446.000	301.905	79.987	19.992	100.086	19.398	44.108	0.487
446.500	302.162	79.987	19.992	100.060	19.403	43.822	0.524
447.000	302.436	79.988	19.991	100.037	19.407	43.580	0.539
447.500	302.680	79.989	19.994	100.033	19.411	43.280	0.524
448.000	302.953	79.988	19.992	100.033	19.416	42.977	0.517
448.500	303.171	79.988	19.992	100.033	19.421	42.678	0.504
449.000	303.447	79.988	19.993	100.034	19.425	42.417	0.493
449.500	303.666	79.991	19.992	100.036	19.431	42.083	0.495
450.000	303.955	79.988	19.992	100.030	19.432	42.022	0.501
450.500	304.240	79.989	19.992	100.022	19.434	41.905	0.541
451.000	304.465	79.990	19.994	100.015	19.439	41.585	0.542
451.500	304.750	79.991	19.994	100.010	19.441	41.483	0.510
452.000	305.002	79.990	19.993	100.003	19.446	41.145	0.524
452.500	305.243	79.989	19.994	99.977	19.445	41.170	0.515
453.000	305.499	79.991	19.994	99.955	19.447	41.012	0.495
453.500	305.770	79.990	19.990	99.940	19.455	40.532	0.512
454.000	306.036	79.989	19.993	99.926	19.455	40.559	0.532
454.500	306.305	79.989	19.991	99.920	19.459	40.286	0.536
455.000	306.545	79.989	19.993	99.941	19.465	39.962	0.522
455.500	306.785	79.990	19.992	99.961	19.466	39.886	0.495
456.000	307.037	79.990	19.993	99.983	19.466	39.888	0.486
456.500	307.309	79.992	19.993	99.998	19.470	39.676	0.508
457.000	307.567	79.990	19.992	99.998	19.475	39.339	0.527
457.500	307.802	79.989	19.993	99.994	19.478	39.142	0.511
458.000	308.034	79.990	19.993	99.984	19.483	38.829	0.480
458.500	308.337	79.989	19.990	99.965	19.485	38.667	0.501
459.000	308.596	79.988	19.993	99.948	19.488	38.499	0.548
459.500	308.838	79.989	19.992	99.944	19.491	38.314	0.531
460.000	309.113	79.988	19.992	99.944	19.493	38.173	0.509
460.500	309.369	79.987	19.993	99.953	19.498	37.872	0.524
461.000	309.603	79.989	19.991	99.995	19.501	37.707	0.510
461.500	309.842	79.989	19.992	100.022	19.502	37.620	0.482
462.000	310.099	79.987	19.992	100.029	19.504	37.511	0.485
462.500	310.374	79.989	19.992	100.001	19.510	37.135	0.514
463.000	310.648	79.987	19.993	99.976	19.509	37.162	0.540
463.500	310.863	79.988	19.993	99.931	19.515	36.848	0.519
464.000	311.117	79.989	19.994	99.907	19.518	36.657	0.479
464.500	311.400	79.989	19.992	99.902	19.523	36.318	0.503
465.000	311.667	79.987	19.993	99.931	19.530	35.895	0.544
465.500	311.921	79.988	19.993	99.955	19.537	35.470	0.536
466.000	312.193	79.989	19.995	99.978	19.536	35.492	0.524
466.500	312.429	79.988	19.992	100.010	19.541	35.187	0.517
467.000	312.681	79.989	19.993	100.022	19.547	34.847	0.498
467.500	312.937	79.988	19.993	100.021	19.551	34.550	0.497
468.000	313.200	79.988	19.992	100.015	19.556	34.288	0.513
468.500	313.480	79.988	19.992	100.001	19.559	34.083	0.531
469.000	313.755	79.989	19.994	99.969	19.563	33.838	0.549
469.500	313.993	79.989	19.993	99.957	19.567	33.566	0.534
470.000	314.213	79.987	19.994	99.954	19.577	32.957	0.486
470.500	314.554	79.989	19.993	99.954	19.578	32.877	0.510
471.000	314.779	79.988	19.995	99.954	19.587	32.317	0.563
471.500	315.032	79.989	19.991	99.955	19.592	31.992	0.522
472.000	315.283	79.990	19.995	99.955	19.599	31.586	0.491
472.500	315.502	79.989	19.994	99.958	19.607	31.068	0.487
473.000	315.787	79.989	19.992	99.958	19.614	30.633	0.487
473.500	316.034	79.989	19.993	99.957	19.619	30.297	0.518
474.000	316.307	79.988	19.994	99.956	19.625	29.957	0.526
474.500	316.548	79.990	19.993	99.956	19.630	29.617	0.517
475.000	316.825	79.987	19.993	99.956	19.639	29.070	0.516
475.500	317.056	79.988	19.994	99.956	19.643	28.843	0.513
476.000	317.336	79.988	19.994	99.955	19.648	28.532	0.510
476.500	317.578	79.988	19.993	99.956	19.654	28.129	0.516
477.000	317.813	79.988	19.994	99.957	19.659	27.808	0.499
477.500	318.056	79.989	19.991	99.957	19.668	27.262	0.478
478.000	318.348	79.988	19.992	99.957	19.670	27.168	0.507
478.500	318.592	79.988	19.994	99.958	19.676	26.756	0.536
479.000	318.861	79.990	19.993	99.956	19.687	26.089	0.525
479.500	319.113	79.987	19.993	99.951	19.695	25.577	0.517
480.000	319.380	79.988	19.992	99.944	19.702	25.134	0.520
480.500	319.624	79.988	19.993	99.937	19.703	25.066	0.515
481.000	319.875	79.989	19.995	99.934	19.710	24.628	0.503
481.500	320.094	79.989	19.994	99.933	19.714	24.372	0.482
482.000	320.375	79.990	19.995	99.934	19.721	23.947	0.485
482.500	320.640	79.990	19.992	99.934	19.726	23.626	0.523
483.000	320.868	79.990	19.994	99.933	19.735	23.089	0.519
483.500	321.142	79.989	19.993	99.931	19.739	22.822	0.497
484.000	321.407	79.989	19.995	99.926	19.743	22.560	0.521
484.500	321.681	79.989	19.994	99.924	19.749	22.187	0.539
485.000	321.934	79.988	19.995	99.926	19.753	21.931	0.533
485.500	322.154	79.990	19.992	99.926	19.759	21.561	0.500
486.000	322.417	79.988	19.992	99.924	19.763	21.335	0.478
486.500	322.670	79.988	19.993	99.924	19.771	20.833	0.499
487.000	322.938	79.988	19.995	99.922	19.774	20.643	0.518
487.500	323.180	79.989	19.993	99.919	19.779	20.327	0.515
488.000	323.396	79.988	19.994	99.918	19.780	20.271	0.484
488.500	323.677	79.989	19.993	99.918	19.790	19.674	0.478
489.000	323.909	79.988	19.994	99.918	19.794	19.417	0.505
489.500	324.169	79.989	19.992	99.917	19.799	19.120	0.502
490.000	324.428	79.988	19.994	99.917	19.800	19.020	0.506
490.500	324.654	79.989	19.995	99.914	19.807	18.586	0.502
491.000	324.917	79.988	19.995	99.907	19.809	18.456	0.487
491.500	325.181	79.988	19.994	99.903	19.811	18.325	0.508
492.000	325.426	79.987	19.992	99.898	19.815	18.089	0.518
492.500	325.639	79.987	19.992	99.890	19.818	17.886	0.484
493.000	325.917	79.986	19.991	99.886	19.825	17.455	0.474
493.500	326.172	79.987	19.994	99.884	19.828	17.287	0.512
494.000	326.424	79.986	19.994	99.881	19.829	17.232	0.520
494.500	326.700	79.988	19.995	99.881	19.830	17.178	0.517
495.000	326.937	79.986	19.995	99.887	19.838	16.670	0.520
495.500	327.171	79.988	19.996	99.889	19.842	16.446	0.492
496.000	327.438	79.987	19.994	99.890	19.842	16.411	0.486
496.500	327.682	79.987	19.995	99.892	19.848	16.044	0.506
497.000	327.898	79.987	19.992	99.897	19.851	15.837	0.486
497.500	328.195	79.987	19.994	99.894	19.850	15.910	0.487
498.000	328.463	79.987	19.993	99.893	19.854	15.665	0.539
498.500	328.675	79.987	19.994	99.893	19.859	15.368	0.522
499.000	328.944	79.987	19.994	99.891	19.857	15.462	0.480
499.500	329.205	79.987	19.994	99.884	19.859	15.323	0.506
500.000	329.448	79.986	19.994	99.882	19.862	15.180	0.517
500.500	329.700	79.988	19.993	99.882	19.864	15.049	0.500
501.000	329.959	79.988	19.995	99.886	19.867	14.867	0.503
501.500	330.210	79.986	19.994	99.890	19.869	14.727	0.510
502.000	330.455	79.988	19.995	99.891	19.868	14.796	0.503
502.500	330.710	79.989	19.993	99.892	19.870	14.634	0.498
503.000	330.952	79.987	19.994	99.897	19.872	14.554	0.499
503.500	331.195	79.988	19.993	99.897	19.874	14.403	0.491
504.000	331.468	79.988	19.994	99.901	19.875	14.335	0.500
504.500	331.715	79.989	19.994	99.909	19.881	13.995	0.518
505.000	331.947	79.988	19.993	99.917	19.881	13.968	0.499
505.500	332.219	79.989	19.990	99.920	19.887	13.602	0.492
506.000	332.480	79.988	19.992	99.924	19.884	13.814	0.518
506.500	332.702	79.988	19.994	99.922	19.883	13.833	0.508
507.000	332.974	79.989	19.995	99.915	19.887	13.609	0.488
507.500	333.200	79.989	19.992	99.906	19.882	13.891	0.496
508.000	333.440	79.988	19.993	99.897	19.883	13.853	0.482
508.500	333.721	79.989	19.994	99.889	19.886	13.668	0.494
509.000	333.989	79.989	19.993	99.887	19.888	13.547	0.535
509.500	334.240	79.989	19.993	99.886	19.892	13.318	0.533
510.000	334.484	79.990	19.993	99.894	19.890	13.428	0.507
510.500	334.711	79.989	19.994	99.878	19.888	13.520	0.484
511.000	334.977	79.990	19.994	99.847	19.889	13.463	0.482
511.500	335.235	79.989	19.994	99.820	19.888	13.570	0.509
512.000	335.440	79.988	19.994	99.809	19.892	13.311	0.493
512.500	335.710	79.987	19.993	99.799	19.890	13.395	0.469
513.000	335.937	79.988	19.993	99.815	19.893	13.245	0.486
513.500	336.214	79.987	19.994	99.873	19.891	13.347	0.500
514.000	336.462	79.988	19.994	99.922	19.894	13.150	0.514
514.500	336.693	79.987	19.995	99.939	19.891	13.328	0.502
515.000	336.958	79.988	19.994	99.943	19.895	13.092	0.488
515.500	337.197	79.989	19.993	99.943	19.897	12.962	0.500
516.000	337.428	79.988	19.994	99.915	19.895	13.081	0.487
516.500	337.671	79.986	19.993	99.889	19.895	13.117	0.472
517.000	337.947	79.988	19.992	99.879	19.897	12.990	0.496
517.500	338.180	79.987	19.993	99.877	19.895	13.104	0.514
518.000	338.434	79.988	19.994	99.877	19.895	13.101	0.498
518.500	338.696	79.988	19.994	99.878	19.898	12.890	0.502
519.000	338.958	79.989	19.993	99.878	19.896	13.060	0.520
519.500	339.180	79.988	19.994	99.882	19.896	13.045	0.504
520.000	339.480	79.988	19.993	99.882	19.898	12.939	0.503
520.500	339.672	79.988	19.995	99.883	19.895	13.093	0.507
521.000	339.938	79.988	19.995	99.886	19.896	13.029	0.475
521.500	340.163	79.988	19.995	99.888	19.897	12.998	0.474
522.000	340.430	79.987	19.992	99.896	19.897	13.008	0.492
522.500	340.669	79.989	19.993	99.902	19.895	13.112	0.499
523.000	340.951	79.987	19.995	99.909	19.894	13.185	0.514
523.500	341.166	79.986	19.994	99.912	19.895	13.120	0.509
524.000	341.404	79.987	19.994	99.914	19.896	13.042	0.475
524.500	341.689	79.989	19.992	99.908	19.895	13.108	0.488
525.000	341.920	79.988	19.992	99.902	19.892	13.306	0.519
525.500	342.148	79.988	19.993	99.897	19.893	13.245	0.487
526.000	342.395	79.988	19.993	99.891	19.893	13.254	0.467
526.501	342.660	79.990	19.992	99.886	19.891	13.354	0.494
527.000	342.899	79.991	19.994	99.885	19.891	13.362	0.508
527.500	343.151	79.988	19.992	99.884	19.888	13.544	0.497
528.000	343.424	79.991	19.994	99.882	19.885	13.717	0.508
528.500	343.631	79.991	19.993	99.880	19.889	13.480	0.502
529.000	343.895	79.991	19.992	99.880	19.885	13.761	0.475
529.500	344.145	79.989	19.993	99.882	19.882	13.900	0.493
530.000	344.386	79.991	19.994	99.883	19.882	13.891	0.503
530.500	344.637	79.989	19.993	99.883	19.879	14.084	0.492
531.000	344.919	79.991	19.992	99.883	19.881	14.002	0.513
531.500	345.178	79.990	19.991	99.882	19.876	14.262	0.537
532.000	345.372	79.991	19.993	99.880	19.875	14.357	0.497
532.500	345.700	79.990	19.991	99.879	19.876	14.290	0.487
533.000	345.926	79.992	19.993	99.877	19.872	14.557	0.538
533.500	346.189	79.991	19.993	99.876	19.869	14.706	0.522
534.000	346.424	79.991	19.990	99.874	19.867	14.862	0.494
534.500	346.661	79.991	19.993	99.868	19.869	14.754	0.485
535.000	346.921	79.992	19.992	99.860	19.864	15.041	0.484
535.500	347.165	79.989	19.992	99.854	19.865	14.979	0.500
536.000	347.392	79.991	19.992	99.847	19.859	15.369	0.487
536.500	347.651	79.989	19.991	99.844	19.857	15.481	0.479
537.001	347.882	79.990	19.992	99.850	19.852	15.799	0.488
537.500	348.164	79.991	19.993	99.857	19.853	15.737	0.501
538.000	348.436	79.990	19.991	99.865	19.846	16.130	0.534
538.500	348.672	79.991	19.992	99.873	19.847	16.070	0.531
539.000	348.945	79.990	19.990	99.879	19.846	16.132	0.508
539.500	349.164	79.991	19.994	99.879	19.842	16.440	0.501
540.001	349.444	79.990	19.994	99.879	19.838	16.631	0.495
540.500	349.686	79.990	19.991	99.880	19.837	16.744	0.510
541.000	349.956	79.989	19.992	99.882	19.833	16.996	0.517
541.501	350.187	79.988	19.992	99.882	19.828	17.288	0.507
542.001	350.418	79.989	19.994	99.881	19.826	17.433	0.482
542.500	350.670	79.991	19.992	99.881	19.822	17.675	0.473
543.000	350.915	79.989	19.993	99.881	19.817	17.952	0.490
543.500	351.142	79.987	19.991	99.886	19.815	18.070	0.484
544.000	351.440	79.989	19.994	99.894	19.805	18.688	0.498
544.500	351.726	79.988	19.993	99.898	19.805	18.700	0.554
545.000	351.928	79.988	19.993	99.903	19.798	19.129	0.536
545.500	352.159	79.987	19.994	99.910	19.796	19.276	0.461
546.000	352.467	79.989	19.994	99.910	19.790	19.641	0.486
546.500	352.719	79.987	19.993	99.908	19.790	19.675	0.550
547.000	352.949	79.988	19.992	99.905	19.784	20.036	0.521
547.500	353.222	79.988	19.992	99.901	19.777	20.486	0.493
548.000	353.494	79.989	19.992	99.893	19.770	20.936	0.524
548.500	353.754	79.990	19.993	99.884	19.763	21.360	0.538
549.000	353.989	79.989	19.996	99.879	19.760	21.556	0.513
549.500	354.256	79.989	19.994	99.879	19.756	21.807	0.499
550.000	354.489	79.989	19.993	99.884	19.745	22.435	0.502
550.500	354.728	79.988	19.993	99.885	19.738	22.919	0.486
551.000	354.997	79.988	19.993	99.887	19.732	23.274	0.490
551.500	355.239	79.989	19.992	99.889	19.727	23.598	0.510
552.000	355.478	79.988	19.994	99.895	19.719	24.111	0.497
552.500	355.710	79.989	19.995	99.897	19.713	24.444	0.476
553.000	355.983	79.987	19.994	99.883	19.705	24.983	0.487
553.500	356.264	79.989	19.994	99.855	19.695	25.603	0.529
554.000	356.530	79.989	19.996	99.839	19.687	26.083	0.551
554.500	356.778	79.987	19.995	99.830	19.681	26.438	0.531
555.000	357.015	79.988	19.995	99.823	19.675	26.811	0.499
555.500	357.256	79.988	19.993	99.842	19.666	27.390	0.481
556.000	357.528	79.988	19.993	99.891	19.658	27.893	0.496
556.500	357.771	79.989	19.993	99.938	19.650	28.404	0.514
557.000	358.009	79.989	19.993	99.952	19.642	28.914	0.498
557.500	358.251	79.988	19.993	99.960	19.631	29.595	0.480
558.000	358.489	79.989	19.995	99.963	19.625	29.974	0.479
558.500	358.761	79.994	19.995	99.949	19.615	30.551	0.495
559.000	359.021	79.991	19.995	99.923	19.604	31.271	0.521
559.500	359.247	79.991	19.995	99.918	19.592	32.020	0.509
560.000	359.515	79.994	19.995	99.918	19.580	32.732	0.490
560.500	359.763	80.000	19.994	99.915	19.569	33.426	0.505
561.000	360.028	80.005	19.994	99.914	19.560	33.994	0.514
561.500	360.258	80.005	19.994	99.918	19.548	34.775	0.504
562.000	360.515	80.005	19.994	99.919	19.536	35.482	0.492
562.500	360.802	80.006	19.992	99.918	19.524	36.225	0.516
563.000	361.033	80.008	19.993	99.921	19.512	37.017	0.531
563.500	361.275	80.008	19.992	99.922	19.499	37.826	0.495
564.000	361.534	80.007	19.993	99.920	19.484	38.765	0.487
564.500	361.801	80.004	19.994	99.920	19.468	39.760	0.514
565.000	362.019	80.000	19.993	99.922	19.459	40.317	0.505
565.500	362.275	80.002	19.993	99.923	19.443	41.339	0.479
566.000	362.509	80.000	19.993	99.924	19.427	42.289	0.482
566.500	362.788	79.998	19.994	99.926	19.411	43.291	0.501
567.000	363.025	80.004	19.992	99.929	19.398	44.151	0.514
567.500	363.276	80.005	19.992	99.936	19.376	45.470	0.502
568.000	363.515	80.007	19.994	99.940	19.361	46.457	0.489
568.500	363.769	80.004	19.995	99.939	19.343	47.577	0.492
569.000	364.036	80.007	19.991	99.940	19.324	48.771	0.507
569.500	364.285	80.008	19.994	99.938	19.307	49.795	0.519
570.000	364.553	80.005	19.994	99.932	19.291	50.835	0.517
570.500	364.781	80.004	19.994	99.935	19.268	52.236	0.506
571.000	365.038	80.003	19.993	99.940	19.251	53.322	0.490
571.500	365.318	80.004	19.992	99.942	19.227	54.796	0.511
572.000	365.533	80.003	19.993	99.945	19.209	55.958	0.516
572.500	365.826	79.998	19.993	99.951	19.189	57.152	0.502
573.000	366.042	80.004	19.994	99.952	19.169	58.463	0.509
573.500	366.278	80.007	19.994	99.953	19.143	60.064	0.481
574.000	366.527	80.007	19.995	99.957	19.123	61.292	0.468
574.500	366.805	80.007	19.994	99.960	19.099	62.784	0.506
575.000	367.053	80.008	19.993	99.963	19.074	64.351	0.527
575.500	367.308	80.004	19.993	99.966	19.045	66.186	0.515
576.000	367.544	80.005	19.993	99.966	19.022	67.588	0.497
576.500	367.832	80.003	19.994	99.968	18.995	69.297	0.507
577.000	368.074	79.999	19.996	99.968	18.968	71.013	0.527
577.500	368.329	79.999	19.995	99.968	18.941	72.683	0.514
578.000	368.548	79.994	19.994	99.968	18.911	74.576	0.485
578.500	368.841	79.996	19.993	99.973	18.883	76.289	0.493
579.000	369.071	79.995	19.992	99.973	18.852	78.228	0.518
579.500	369.361	79.995	19.995	99.981	18.824	80.007	0.521
580.000	369.589	79.993	19.995	99.986	18.794	81.848	0.519
580.500	369.836	79.991	19.994	99.991	18.761	83.944	0.496
581.000	370.078	80.000	19.994	99.994	18.731	85.797	0.482
581.500	370.333	79.995	19.995	99.999	18.698	87.878	0.493
582.000	370.560	79.992	19.994	99.999	18.660	90.237	0.489
582.500	370.806	79.997	19.992	100.004	18.626	92.391	0.477
583.000	371.087	79.996	19.993	100.007	18.592	94.499	0.500
583.500	371.333	79.994	19.993	100.010	18.558	96.640	0.527
584.000	371.585	79.992	19.993	100.017	18.518	99.076	0.513
584.500	371.811	79.992	19.993	100.024	18.484	101.214	0.488
585.000	372.066	79.996	19.992	100.029	18.446	103.613	0.479
585.500	372.336	79.994	19.992	100.034	18.407	106.008	0.503
586.000	372.617	79.995	19.993	100.036	18.367	108.508	0.538
586.500	372.886	79.999	19.993	100.032	18.328	110.960	0.551
587.000	373.116	79.998	19.993	100.031	18.281	113.939	0.524
587.500	373.356	79.992	19.993	100.031	18.240	116.459	0.484
588.000	373.635	79.995	19.993	100.030	18.198	119.098	0.495
588.500	373.877	79.996	19.994	100.033	18.159	121.532	0.520
589.000	374.133	79.995	19.993	100.037	18.110	124.579	0.510
589.500	374.373	79.999	19.993	100.037	18.071	127.042	0.497
590.000	374.658	79.996	19.993	100.036	18.018	130.356	0.510
590.500	374.876	80.001	19.992	100.038	17.970	133.338	0.513
591.000	375.116	80.001	19.993	100.045	17.924	136.163	0.480
591.500	375.356	79.997	19.992	100.052	17.873	139.387	0.469
592.000	375.611	79.994	19.994	100.057	17.826	142.287	0.488
592.500	375.890	79.992	19.993	100.059	17.781	145.088	0.514
593.000	376.139	79.993	19.994	100.059	17.730	148.260	0.531
593.500	376.420	79.998	19.993	100.059	17.678	151.432	0.529
594.000	376.644	79.995	19.995	100.059	17.631	154.352	0.517
594.500	376.918	79.995	19.995	100.060	17.580	157.498	0.501
595.000	377.126	79.998	19.995	100.058	17.526	160.822	0.490
595.500	377.376	79.994	19.995	100.057	17.472	164.196	0.470
596.000	377.618	79.997	19.996	100.049	17.417	167.678	0.475
596.500	377.854	80.000	19.996	100.048	17.358	171.312	0.485
597.000	378.125	80.000	19.994	100.052	17.308	174.440	0.492
597.500	378.400	80.006	19.995	100.060	17.248	178.189	0.527
598.000	378.613	80.003	19.995	100.067	17.188	181.952	0.517
598.500	378.872	80.004	19.994	100.080	17.136	185.183	0.480
599.000	379.137	79.995	19.994	100.082	17.078	188.776	0.498
599.500	379.373	79.992	19.995	100.081	17.017	192.582	0.512
600.000	379.652	79.994	19.993	100.080	16.958	196.310	0.508
600.500	379.892	79.991	19.994	100.072	16.913	199.101	0.517
601.000	380.134	79.989	19.994	100.062	16.856	202.594	0.501
601.500	380.402	79.989	19.994	100.062	16.796	206.311	0.496
602.000	380.631	79.989	19.995	100.055	16.742	209.609	0.503
602.500	380.884	79.989	19.993	100.044	16.684	213.165	0.489
603.000	381.106	79.989	19.994	100.045	16.632	216.353	0.479
603.500	381.373	79.988	19.994	100.035	16.574	219.869	0.482
604.000	381.610	79.989	19.994	100.024	16.523	223.039	0.496
604.500	381.878	79.988	19.994	99.994	16.467	226.536	0.505
605.000	382.153	79.987	19.993	99.984	16.406	230.288	0.524
605.500	382.359	79.989	19.995	99.967	16.352	233.670	0.512
606.000	382.661	79.990	19.995	99.939	16.301	236.828	0.495
606.500	382.897	79.988	19.994	99.926	16.246	240.190	0.523
607.000	383.135	79.989	19.994	99.946	16.190	243.636	0.505
607.500	383.376	79.988	19.993	99.947	16.141	246.705	0.476
608.000	383.654	79.988	19.994	99.942	16.092	249.783	0.499
608.500	383.903	79.989	19.995	99.958	16.040	252.993	0.523
609.000	384.137	79.989	19.994	99.958	15.989	256.164	0.505
609.500	384.403	79.990	19.995	99.952	15.941	259.135	0.492
610.000	384.571	79.992	19.994	99.947	15.896	261.923	0.467
610.500	384.846	79.991	19.992	99.946	15.856	264.384	0.439
611.000	385.152	79.991	19.994	99.944	15.814	266.960	0.512
611.500	385.371	79.990	19.993	99.936	15.777	269.193	0.553
612.000	385.576	79.992	19.992	99.921	15.739	271.501	0.474
612.500	385.887	79.991	19.993	99.901	15.707	273.427	0.469
613.000	386.163	79.990	19.993	99.876	15.669	275.771	0.551
613.500	386.366	79.991	19.993	99.847	15.639	277.608	0.533
614.000	386.545	79.990	19.992	99.816	15.606	279.663	0.431
614.500	386.903	79.992	19.993	99.787	15.579	281.342	0.460
615.000	387.172	79.992	19.994	99.773	15.552	282.990	0.582
615.500	387.364	79.992	19.993	99.772	15.520	284.947	0.543
616.000	387.610	79.992	19.993	99.769	15.491	286.789	0.449
616.500	387.881	79.992	19.994	99.765	15.472	287.989	0.478
617.000	388.135	79.992	19.994	99.760	15.449	289.457	0.521
617.500	388.381	79.993	19.993	99.745	15.430	290.639	0.513
618.000	388.658	79.991	19.992	99.735	15.410	291.889	0.512
618.500	388.881	79.990	19.994	99.741	15.393	292.934	0.511
619.000	389.113	79.991	19.993	99.744	15.378	293.809	0.477
619.500	389.403	79.991	19.993	99.740	15.368	294.424	0.488
620.000	389.628	79.992	19.994	99.737	15.360	294.944	0.519
620.500	389.915	79.993	19.993	99.730	15.353	295.362	0.514
621.000	390.160	79.991	19.993	99.718	15.350	295.539	0.522
621.500	390.398	79.992	19.991	99.707	15.348	295.731	0.507
622.000	390.659	79.991	19.994	99.690	15.347	295.765	0.491
622.500	390.897	79.989	19.993	99.669	15.347	295.761	0.499
623.000	391.146	79.990	19.993	99.647	15.348	295.724	0.493
623.500	391.400	79.989	19.994	99.629	15.357	295.248	0.495
624.000	391.675	79.989	19.992	99.619	15.363	294.900	0.516
624.500	391.944	79.989	19.994	99.613	15.376	294.133	0.536
625.000	392.215	79.989	19.991	99.614	15.389	293.315	0.542
625.500	392.521	79.987	19.992	99.613	15.405	292.305	0.559
626.000	392.759	79.987	19.993	99.600	15.420	291.300	0.561
626.500	392.986	79.988	19.995	99.592	15.444	289.786	0.504
627.000	393.280	79.989	19.993	99.596	15.469	288.174	0.493
627.500	393.488	79.988	19.993	99.605	15.493	286.684	0.512
628.000	393.798	79.989	19.994	99.613	15.521	284.982	0.510
628.500	394.060	79.988	19.995	99.622	15.551	283.142	0.545
629.000	394.274	79.989	19.993	99.624	15.584	281.092	0.524
629.500	394.563	79.988	19.994	99.619	15.619	278.893	0.490
630.000	394.782	79.988	19.996	99.611	15.654	276.725	0.505
630.500	395.023	79.988	19.993	99.605	15.688	274.639	0.484
631.000	395.299	79.990	19.994	99.607	15.727	272.205	0.489
631.500	395.572	79.988	19.994	99.603	15.764	269.918	0.533
632.000	395.826	79.990	19.994	99.598	15.802	267.597	0.538
632.500	396.055	79.989	19.993	99.613	15.844	265.047	0.505
633.000	396.309	79.988	19.994	99.612	15.885	262.456	0.483
633.500	396.593	79.988	19.994	99.613	15.926	259.940	0.510
634.000	396.813	79.989	19.994	99.627	15.969	257.216	0.521
634.500	397.066	79.989	19.993	99.656	16.016	254.288	0.489
635.000	397.345	79.989	19.993	99.656	16.064	251.257	0.502
635.500	397.606	79.989	19.993	99.668	16.114	248.117	0.536
636.000	397.850	79.988	19.993	99.665	16.164	244.897	0.523
636.500	398.112	79.989	19.993	99.656	16.218	241.389	0.506
637.000	398.361	79.990	19.993	99.636	16.267	238.220	0.508
637.500	398.630	79.990	19.994	99.623	16.319	234.882	0.514
638.000	398.896	79.991	19.994	99.616	16.375	231.365	0.527
638.500	399.154	79.992	19.994	99.617	16.428	228.144	0.530
639.000	399.371	79.995	19.993	99.626	16.479	225.118	0.499
639.500	399.659	79.991	19.992	99.632	16.532	221.934	0.490
640.000	399.890	79.992	19.993	99.633	16.591	218.375	0.512
640.500	400.154	79.989	19.993	99.628	16.650	214.775	0.507
641.000	400.417	79.997	19.993	99.628	16.708	211.197	0.511
641.500	400.656	79.997	19.993	99.628	16.765	207.650	0.515
642.000	400.909	79.994	19.992	99.630	16.826	203.909	0.497
642.500	401.192	80.000	19.993	99.640	16.885	200.282	0.514
643.000	401.436	80.000	19.991	99.658	16.955	195.949	0.532
643.501	401.714	80.001	19.994	99.668	17.014	192.273	0.524
644.000	401.951	79.998	19.992	99.669	17.077	188.358	0.518
644.500	402.242	79.995	19.992	99.664	17.139	184.493	0.522
645.000	402.512	79.996	19.994	99.659	17.198	180.789	0.545
645.500	402.756	79.999	19.993	99.649	17.260	176.919	0.538
646.000	403.010	79.991	19.992	99.641	17.319	173.267	0.506
646.500	403.297	79.988	19.992	99.628	17.380	169.465	0.520
647.000	403.501	79.991	19.991	99.589	17.438	165.865	0.516
647.500	403.788	79.990	19.992	99.527	17.497	162.261	0.491
648.000	404.037	79.990	19.992	99.467	17.550	158.966	0.513
648.500	404.290	79.992	19.991	99.426	17.608	155.390	0.519
649.000	404.528	79.991	19.992	99.409	17.663	151.924	0.496
649.500	404.777	79.991	19.992	99.432	17.721	148.340	0.490
650.001	405.050	79.992	19.992	99.480	17.773	145.105	0.505
650.501	405.305	79.988	19.994	99.531	17.822	142.016	0.525
651.001	405.527	79.990	19.993	99.571	17.874	138.806	0.503
651.501	405.802	79.988	19.993	99.602	17.929	135.385	0.487
652.000	406.084	79.988	19.993	99.623	17.977	132.432	0.526
652.500	406.316	79.989	19.994	99.637	18.027	129.295	0.535
653.000	406.588	79.988	19.993	99.651	18.078	126.132	0.509
653.500	406.841	79.989	19.993	99.660	18.124	123.284	0.514
654.000	407.090	79.988	19.993	99.665	18.171	120.337	0.513
654.500	407.333	79.988	19.993	99.669	18.217	117.508	0.497
655.000	407.573	79.989	19.994	99.672	18.261	114.748	0.488
655.500	407.825	79.989	19.995	99.664	18.308	111.818	0.488
656.000	408.115	79.987	19.993	99.649	18.350	109.192	0.517
656.500	408.366	79.987	19.993	99.642	18.396	106.359	0.541
657.000	408.614	79.988	19.993	99.642	18.437	103.796	0.520
657.500	408.898	79.987	19.992	99.648	18.477	101.287	0.516
658.000	409.135	79.988	19.994	99.666	18.516	98.885	0.527
658.500	409.374	79.988	19.994	99.689	18.558	96.285	0.498
659.000	409.620	79.987	19.993	99.703	18.593	94.047	0.481
659.500	409.898	79.988	19.992	99.706	18.633	91.572	0.504
660.000	410.097	79.987	19.994	99.706	18.670	89.269	0.500
660.500	410.394	79.987	19.994	99.698	18.706	87.052	0.487
661.000	410.631	79.987	19.994	99.692	18.741	84.871	0.515
661.500	410.891	79.988	19.995	99.690	18.775	82.781	0.516
662.000	411.119	79.987	19.993	99.697	18.810	80.598	0.493
662.500	411.362	79.987	19.993	99.701	18.844	78.466	0.479
663.000	411.618	79.989	19.993	99.707	18.874	76.599	0.485
663.500	411.875	79.989	19.993	99.709	18.907	74.564	0.506
664.000	412.158	79.989	19.993	99.712	18.937	72.685	0.526
664.500	412.389	79.988	19.993	99.713	18.966	70.891	0.527
665.000	412.655	79.989	19.993	99.714	18.999	68.856	0.506
665.500	412.908	79.988	19.994	99.713	19.024	67.275	0.508
666.000	413.134	79.991	19.995	99.712	19.049	65.729	0.499
666.500	413.392	79.992	19.994	99.706	19.077	63.991	0.481
667.000	413.620	79.998	19.994	99.704	19.105	62.276	0.485
667.500	413.887	79.998	19.994	99.704	19.129	60.757	0.490
668.000	414.131	80.000	19.992	99.703	19.159	58.924	0.503
668.500	414.345	79.995	19.994	99.702	19.181	57.552	0.485
669.000	414.626	79.997	19.993	99.702	19.207	55.918	0.477
669.500	414.854	79.994	19.993	99.696	19.228	54.631	0.502
670.000	415.084	79.994	19.995	99.692	19.250	53.236	0.484
670.500	415.337	79.997	19.994	99.691	19.277	51.586	0.470
671.000	415.646	79.993	19.995	99.696	19.295	50.468	0.522
671.500	415.865	79.992	19.995	99.703	19.317	49.066	0.545
672.000	416.144	79.996	19.995	99.711	19.341	47.572	0.513
672.500	416.372	79.997	19.995	99.715	19.361	46.321	0.502
673.000	416.602	79.998	19.995	99.720	19.380	45.152	0.482
673.500	416.868	79.999	19.993	99.722	19.402	43.763	0.477
674.000	417.104	79.996	19.994	99.722	19.425	42.361	0.499
674.500	417.351	80.003	19.994	99.722	19.438	41.521	0.492
675.000	417.607	80.001	19.996	99.722	19.460	40.180	0.493
675.500	417.866	80.003	19.994	99.722	19.478	39.074	0.509
676.000	418.089	79.996	19.995	99.724	19.495	38.014	0.499
676.500	418.336	79.995	19.994	99.729	19.510	37.060	0.476
677.000	418.619	79.997	19.993	99.737	19.527	36.037	0.500
677.500	418.887	79.996	19.994	99.743	19.545	34.884	0.540
678.000	419.115	79.995	19.993	99.749	19.560	33.967	0.524
678.500	419.390	79.993	19.993	99.750	19.574	33.086	0.500
679.000	419.646	79.997	19.993	99.746	19.589	32.180	0.517
679.500	419.864	80.000	19.994	99.744	19.605	31.161	0.502
680.000	420.117	80.002	19.994	99.744	19.615	30.525	0.473
680.500	420.382	80.001	19.994	99.744	19.631	29.554	0.494
681.000	420.628	80.001	19.993	99.748	19.645	28.645	0.515
681.500	420.889	80.001	19.992	99.754	19.655	28.072	0.510
682.000	421.143	79.999	19.994	99.757	19.669	27.175	0.511
682.500	421.405	80.000	19.994	99.758	19.683	26.302	0.515
683.000	421.624	79.999	19.994	99.760	19.690	25.855	0.498
683.500	421.901	80.002	19.993	99.762	19.705	24.941	0.489
684.000	422.139	80.002	19.993	99.766	19.716	24.233	0.505
684.500	422.389	79.997	19.994	99.770	19.729	23.443	0.501
685.000	422.636	80.001	19.994	99.775	19.736	22.996	0.493
685.500	422.895	80.002	19.995	99.781	19.748	22.239	0.502
686.000	423.167	80.000	19.996	99.787	19.754	21.911	0.519
686.500	423.382	80.004	19.994	99.788	19.767	21.049	0.509
687.000	423.654	80.004	19.995	99.792	19.774	20.629	0.487
687.500	423.898	80.006	19.995	99.795	19.784	19.989	0.502
688.000	424.181	80.006	19.994	99.797	19.793	19.438	0.521
688.500	424.385	80.006	19.995	99.798	19.802	18.889	0.507
689.000	424.664	80.002	19.995	99.801	19.810	18.374	0.485
689.500	424.936	79.997	19.994	99.802	19.818	17.882	0.517
690.000	425.147	80.003	19.994	99.802	19.825	17.445	0.517
690.500	425.453	79.999	19.995	99.802	19.834	16.896	0.500
691.000	425.685	80.000	19.994	99.803	19.843	16.315	0.528
691.500	425.927	80.003	19.993	99.807	19.846	16.151	0.506
692.000	426.188	79.998	19.994	99.807	19.854	15.669	0.488
692.500	426.429	79.998	19.994	99.806	19.858	15.417	0.503
693.000	426.665	80.002	19.994	99.807	19.865	14.966	0.490
693.500	426.907	79.999	19.994	99.806	19.867	14.836	0.477
694.000	427.201	80.006	19.993	99.804	19.877	14.245	0.507
694.500	427.427	80.004	19.994	99.807	19.881	13.987	0.528
695.000	427.710	80.007	19.993	99.810	19.887	13.569	0.515
695.500	427.983	80.008	19.993	99.815	19.890	13.384	0.533
696.000	428.206	80.009	19.993	99.816	19.895	13.098	0.526
696.500	428.473	80.010	19.994	99.817	19.902	12.671	0.493
697.000	428.711	80.010	19.994	99.815	19.903	12.610	0.497
697.500	428.985	80.009	19.994	99.813	19.909	12.207	0.509
698.000	429.212	80.011	19.994	99.811	19.912	12.025	0.507
698.500	429.524	80.009	19.995	99.813	19.916	11.804	0.520
699.000	429.729	80.009	19.992	99.812	19.920	11.524	0.528
699.500	429.975	80.010	19.994	99.813	19.925	11.213	0.485
700.000	430.229	80.010	19.993	99.816	19.930	10.904	0.476
700.500	430.502	80.010	19.994	99.817	19.934	10.669	0.513
701.000	430.765	80.010	19.993	99.820	19.940	10.288	0.531
701.500	430.972	80.009	19.993	99.826	19.940	10.295	0.503
702.000	431.258	80.010	19.993	99.830	19.942	10.150	0.482
702.500	431.527	80.009	19.993	99.832	19.948	9.814	0.524
703.000	431.755	80.009	19.994	99.834	19.950	9.665	0.526
703.500	432.026	80.007	19.995	99.835	19.953	9.504	0.498
704.000	432.287	80.005	19.995	99.835	19.954	9.428	0.515
704.500	432.528	80.006	19.994	99.833	19.959	9.125	0.516
705.001	432.806	80.001	19.993	99.836	19.960	9.037	0.511
705.500	433.051	79.997	19.995	99.837	19.961	8.988	0.521
706.000	433.323	80.000	19.994	99.832	19.966	8.684	0.520
706.500	433.578	79.998	19.994	99.801	19.967	8.608	0.522
707.000	433.813	79.992	19.994	99.782	19.971	8.383	0.509
707.500	434.089	79.997	19.992	99.771	19.972	8.289	0.500
708.000	434.358	79.997	19.993	99.765	19.979	7.841	0.528
708.500	434.558	79.997	19.993	99.769	19.979	7.842	0.507
709.000	434.866	79.995	19.994	99.800	19.982	7.652	0.488
709.500	435.092	79.994	19.994	99.824	19.982	7.700	0.520
710.000	435.372	79.998	19.993	99.849	19.989	7.236	0.520
710.500	435.683	79.995	19.993	99.888	19.991	7.109	0.549
711.000	435.880	79.993	19.994	99.906	19.993	6.966	0.550
711.500	436.161	79.992	19.992	99.908	19.995	6.844	0.494
712.000	436.406	79.996	19.993	99.905	19.999	6.651	0.502
712.500	436.636	79.992	19.993	99.893	20.002	6.453	0.500
713.000	436.910	79.989	19.993	99.860	20.002	6.465	0.489
713.500	437.196	79.991	19.993	99.845	20.002	6.429	0.532
714.000	437.454	79.988	19.994	99.837	20.004	6.303	0.552
714.500	437.675	79.991	19.995	99.830	20.010	5.943	0.511
715.000	437.974	79.993	19.994	99.825	20.011	5.872	0.499
715.500	438.210	79.997	19.995	99.822	20.009	6.010	0.528
716.000	438.478	79.993	19.993	99.820	20.013	5.729	0.520
716.500	438.726	79.993	19.994	99.818	20.012	5.792	0.510
717.000	438.950	79.993	19.994	99.820	20.015	5.615	0.494
717.500	439.217	79.994	19.993	99.825	20.015	5.627	0.481
718.000	439.511	79.996	19.994	99.827	20.017	5.500	0.526
718.500	439.758	79.992	19.993	99.825	20.021	5.281	0.551
719.000	439.970	79.998	19.993	99.825	20.021	5.278	0.500
719.500	440.277	79.996	19.993	99.823	20.022	5.201	0.489
720.000	440.523	79.997	19.993	99.815	20.023	5.105	0.536
720.500	440.747	80.000	19.993	99.813	20.030	4.675	0.511
721.000	440.980	80.006	19.994	99.818	20.030	4.721	0.463
721.500	441.276	80.003	19.993	99.825	20.029	4.743	0.494
722.000	441.521	80.004	19.994	99.831	20.031	4.634	0.535
722.500	441.824	80.005	19.991	99.839	20.029	4.726	0.544
723.000	442.037	80.009	19.993	99.841	20.034	4.465	0.532
723.500	442.285	80.009	19.993	99.841	20.032	4.548	0.488
724.000	442.552	80.009	19.993	99.839	20.035	4.402	0.488
724.500	442.823	80.010	19.994	99.837	20.036	4.305	0.527
725.000	443.102	80.011	19.994	99.833	20.036	4.337	0.544
725.500	443.327	80.010	19.993	99.830	20.032	4.553	0.527
726.000	443.575	80.009	19.993	99.825	20.037	4.231	0.489
726.500	443.877	80.010	19.993	99.825	20.035	4.373	0.511
727.000	444.120	80.008	19.992	99.827	20.041	3.996	0.547
727.500	444.360	80.009	19.991	99.829	20.039	4.122	0.514
728.001	444.622	80.008	19.994	99.833	20.041	4.024	0.493
728.500	444.880	80.010	19.992	99.839	20.046	3.703	0.512
729.000	445.132	80.010	19.993	99.839	20.042	3.964	0.515
729.500	445.387	80.009	19.992	99.840	20.044	3.850	0.508
730.000	445.654	80.010	19.994	99.841	20.045	3.783	0.515
730.500	445.891	80.010	19.993	99.839	20.042	3.932	0.513
731.000	446.156	80.009	19.992	99.832	20.042	3.911	0.503
731.500	446.432	80.009	19.992	99.829	20.042	3.945	0.521
732.000	446.665	80.007	19.994	99.828	20.045	3.784	0.525
732.500	446.931	80.008	19.993	99.821	20.046	3.686	0.504
733.000	447.184	80.009	19.993	99.817	20.047	3.658	0.509
733.500	447.446	80.008	19.993	99.818	20.046	3.671	0.517
734.000	447.742	80.008	19.993	99.817	20.046	3.715	0.536
734.500	447.979	80.008	19.993	99.817	20.046	3.667	0.546
735.000	448.257	80.008	19.993	99.818	20.048	3.550	0.524
735.500	448.488	80.009	19.993	99.817	20.049	3.507	0.512
736.000	448.738	80.009	19.993	99.816	20.050	3.438	0.495
736.500	449.020	80.008	19.992	99.812	20.046	3.724	0.507
737.000	449.278	80.010	19.993	99.806	20.048	3.599	0.536
737.500	449.537	80.009	19.994	99.812	20.047	3.650	0.528
738.000	449.756	80.007	19.992	99.817	20.049	3.537	0.498
738.500	450.046	80.008	19.993	99.822	20.051	3.360	0.494
739.000	450.258	80.009	19.993	99.828	20.048	3.556	0.506
739.500	450.525	80.008	19.994	99.835	20.049	3.527	0.490
740.000	450.783	80.009	19.995	99.835	20.048	3.540	0.502
740.500	451.019	80.008	19.993	99.837	20.049	3.527	0.509
741.000	451.287	80.009	19.994	99.819	20.053	3.276	0.499
741.500	451.538	80.011	19.994	99.792	20.051	3.398	0.512
742.000	451.797	80.008	19.994	99.778	20.051	3.365	0.515
742.500	452.095	80.010	19.994	99.770	20.051	3.362	0.534
743.000	452.310	80.010	19.995	99.765	20.051	3.374	0.535
743.500	452.543	80.007	19.993	99.784	20.053	3.238	0.481
744.000	452.801	80.009	19.994	99.813	20.055	3.128	0.469
744.500	453.054	80.009	19.993	99.843	20.053	3.248	0.501
745.000	453.300	80.011	19.993	99.874	20.057	3.018	0.504
745.500	453.553	80.010	19.992	99.883	20.050	3.453	0.499
746.000	453.804	80.009	19.993	99.884	20.052	3.296	0.502
746.500	454.101	80.008	19.993	99.880	20.053	3.250	0.526
747.000	454.348	80.009	19.994	99.861	20.053	3.234	0.546
747.500	454.586	80.010	19.994	99.835	20.053	3.255	0.514
748.000	454.856	80.009	19.993	99.831	20.053	3.246	0.496
748.500	455.109	80.010	19.992	99.828	20.052	3.323	0.515
749.000	455.382	80.010	19.994	99.826	20.054	3.212	0.524
749.500	455.626	80.011	19.995	99.822	20.054	3.167	0.521
750.000	455.884	80.010	19.994	99.816	20.049	3.531	0.510
750.500	456.109	80.010	19.995	99.809	20.048	3.541	0.493
751.000	456.373	80.010	19.996	99.807	20.049	3.502	0.486
751.500	456.613	80.009	19.994	99.813	20.050	3.439	0.497
752.000	456.912	80.011	19.994	99.820	20.053	3.237	0.522
752.500	457.145	80.010	19.993	99.827	20.052	3.317	0.536
753.000	457.428	80.011	19.994	99.832	20.051	3.379	0.524
753.500	457.690	80.010	19.995	99.835	20.049	3.507	0.530
754.000	457.924	80.009	19.995	99.836	20.054	3.219	0.520
754.500	458.213	80.010	19.993	99.836	20.050	3.447	0.509
755.000	458.495	80.010	19.994	99.837	20.052	3.328	0.547
755.500	458.689	80.010	19.994	99.839	20.055	3.132	0.524
756.000	458.948	80.010	19.994	99.841	20.052	3.325	0.464
756.500	459.197	80.010	19.992	99.840	20.053	3.227	0.480
757.000	459.454	80.010	19.993	99.839	20.052	3.340	0.507
757.500	459.696	80.010	19.993	99.837	20.049	3.481	0.503
758.000	459.940	80.009	19.993	99.836	20.054	3.212	0.492
758.500	460.177	80.010	19.993	99.835	20.054	3.186	0.484
759.000	460.448	80.011	19.994	99.833	20.050	3.437	0.495
759.500	460.685	80.010	19.993	99.829	20.050	3.437	0.508
760.000	460.960	80.011	19.994	99.829	20.052	3.340	0.509
760.500	461.210	80.009	19.993	99.831	20.052	3.316	0.518
761.000	461.478	80.009	19.995	99.831	20.052	3.340	0.522
761.500	461.706	80.010	19.994	99.834	20.048	3.560	0.507
762.000	461.942	80.009	19.994	99.837	20.048	3.580	0.480
762.500	462.226	80.009	19.995	99.835	20.051	3.358	0.492
763.000	462.434	80.008	19.994	99.831	20.051	3.413	0.506
763.500	462.726	80.010	19.994	99.828	20.049	3.490	0.496
764.000	462.942	80.009	19.993	99.829	20.050	3.461	0.504
764.500	463.178	80.009	19.993	99.831	20.048	3.561	0.480
765.000	463.410	80.009	19.994	99.835	20.051	3.391	0.460
765.500	463.666	80.008	19.994	99.835	20.050	3.427	0.478
766.000	463.961	80.009	19.993	99.837	20.049	3.487	0.519
766.500	464.174	80.010	19.993	99.838	20.048	3.584	0.529
767.000	464.436	80.010	19.995	99.837	20.050	3.468	0.492
767.500	464.716	80.010	19.993	99.836	20.048	3.553	0.509
768.001	464.922	80.009	19.994	99.834	20.050	3.427	0.514
768.500	465.176	80.009	19.994	99.834	20.050	3.444	0.473
769.000	465.428	80.009	19.995	99.833	20.048	3.546	0.483
769.500	465.707	80.008	19.993	99.834	20.051	3.367	0.519
770.000	465.954	80.009	19.994	99.835	20.050	3.432	0.529
770.500	466.228	80.009	19.995	99.839	20.050	3.459	0.523
771.000	466.459	80.009	19.993	99.842	20.052	3.312	0.513
771.500	466.721	80.009	19.994	99.841	20.048	3.556	0.499
772.000	466.959	80.010	19.994	99.841	20.046	3.718	0.496
772.500	467.211	80.009	19.995	99.838	20.045	3.729	0.495
773.000	467.482	80.009	19.994	99.833	20.049	3.513	0.507
773.500	467.718	80.009	19.992	99.829	20.049	3.503	0.515
774.000	467.989	80.009	19.994	99.824	20.052	3.342	0.507
774.500	468.244	80.009	19.993	99.823	20.048	3.568	0.516
775.000	468.499	80.010	19.994	99.824	20.048	3.554	0.518
775.500	468.755	80.011	19.994	99.829	20.051	3.377	0.511
776.000	468.972	80.010	19.994	99.832	20.052	3.319	0.492
776.500	469.284	80.010	19.996	99.838	20.054	3.168	0.501
777.000	469.516	80.009	19.994	99.837	20.053	3.270	0.536
777.500	469.770	80.009	19.995	99.839	20.053	3.270	0.515
778.000	470.035	80.010	19.994	99.839	20.054	3.181	0.503
778.500	470.255	80.011	19.995	99.840	20.055	3.128	0.502
779.000	470.538	80.010	19.995	99.840	20.054	3.209	0.493
779.500	470.793	80.009	19.994	99.841	20.054	3.205	0.520
780.000	471.048	80.010	19.995	99.841	20.056	3.064	0.524
780.500	471.284	80.010	19.995	99.841	20.054	3.191	0.501
781.000	471.546	80.008	19.995	99.838	20.058	2.953	0.494
781.500	471.818	80.009	19.995	99.830	20.055	3.132	0.516
782.000	472.084	80.010	19.995	99.825	20.057	3.034	0.536
782.500	472.326	80.009	19.994	99.822	20.056	3.099	0.523
783.000	472.560	80.010	19.996	99.814	20.054	3.189	0.492
783.500	472.802	80.010	19.995	99.808	20.053	3.259	0.476
784.000	473.090	80.008	19.994	99.808	20.055	3.148	0.502
784.500	473.371	80.008	19.994	99.807	20.054	3.179	0.549
785.000	473.633	80.009	19.994	99.808	20.053	3.228	0.556
785.500	473.892	80.008	19.994	99.816	20.053	3.257	0.532
786.000	474.100	80.008	19.993	99.823	20.050	3.430	0.494
786.500	474.374	80.008	19.994	99.830	20.050	3.457	0.474
787.000	474.655	80.009	19.994	99.834	20.054	3.208	0.519
787.500	474.901	80.008	19.994	99.836	20.055	3.125	0.541
788.000	475.170	80.008	19.994	99.837	20.055	3.144	0.521
788.500	475.434	80.009	19.994	99.838	20.055	3.164	0.525
789.000	475.679	80.008	19.994	99.838	20.054	3.193	0.522
789.500	475.957	80.008	19.993	99.838	20.055	3.149	0.516
790.000	476.230	80.008	19.993	99.838	20.054	3.217	0.536
790.500	476.492	80.009	19.993	99.838	20.056	3.051	0.543
791.000	476.739	80.008	19.993	99.837	20.053	3.247	0.522
791.500	476.986	80.008	19.994	99.836	20.054	3.167	0.501
792.000	477.221	80.009	19.993	99.835	20.051	3.371	0.488
792.500	477.502	80.009	19.994	99.831	20.055	3.148	0.500
793.000	477.758	80.009	19.994	99.824	20.055	3.127	0.526
793.500	478.010	80.009	19.995	99.820	20.054	3.174	0.522
794.000	478.280	80.009	19.994	99.814	20.054	3.208	0.515
794.500	478.535	80.008	19.994	99.812	20.054	3.220	0.524
795.000	478.807	80.009	19.994	99.815	20.051	3.396	0.526
795.500	479.059	80.008	19.993	99.815	20.054	3.195	0.525
796.000	479.326	80.007	19.993	99.815	20.054	3.174	0.521
796.500	479.552	80.008	19.994	99.820	20.055	3.108	0.506
797.000	479.810	80.008	19.994	99.823	20.059	2.891	0.489
797.500	480.001	80.009	19.994	99.824	20.057	3.014	0.466
798.000	480.300	80.009	19.993	99.831	20.058	2.922	0.469
798.500	480.536	80.010	19.994	99.837	20.059	2.908	0.513
799.000	480.769	80.009	19.992	99.841	20.057	2.989	0.502
799.500	480.987	80.009	19.994	99.841	20.056	3.064	0.460
800.000	481.315	80.009	19.993	99.842	20.056	3.068	0.499
800.500	481.531	80.008	19.993	99.841	20.058	2.950	0.545
801.000	481.805	80.009	19.991	99.834	20.056	3.070	0.517
801.500	482.067	80.009	19.994	99.827	20.055	3.164	0.513
802.000	482.335	80.008	19.991	99.819	20.054	3.213	0.533
802.500	482.595	80.009	19.992	99.813	20.054	3.200	0.529
803.000	482.850	80.008	19.993	99.809	20.054	3.171	0.521
803.500	483.122	80.009	19.993	99.808	20.059	2.905	0.521
804.000	483.361	80.008	19.994	99.808	20.057	3.041	0.519
804.500	483.606	80.007	19.994	99.811	20.054	3.205	0.498
805.000	483.871	80.008	19.994	99.811	20.054	3.188	0.497
805.500	484.143	80.010	19.994	99.816	20.055	3.126	0.523
806.000	484.378	80.009	19.995	99.823	20.054	3.217	0.522
806.500	484.597	80.009	19.994	99.830	20.059	2.913	0.481
807.000	484.846	80.009	19.994	99.833	20.058	2.932	0.461
807.500	485.119	80.009	19.992	99.838	20.057	3.000	0.495
808.000	485.401	80.009	19.994	99.836	20.057	3.014	0.538
808.500	485.657	80.008	19.993	99.833	20.055	3.115	0.546
809.000	485.899	80.008	19.993	99.834	20.055	3.152	0.518
809.500	486.162	80.007	19.994	99.834	20.057	3.004	0.502
810.000	486.433	80.006	19.992	99.804	20.057	3.007	0.520
810.500	486.672	80.007	19.994	99.781	20.059	2.904	0.522
811.000	486.947	80.006	19.993	99.770	20.059	2.858	0.512
811.500	487.217	80.010	19.994	99.760	20.055	3.111	0.529
812.000	487.489	80.009	19.994	99.759	20.057	2.991	0.543
812.500	487.732	80.009	19.994	99.819	20.062	2.717	0.529
813.000	487.985	80.009	19.994	99.872	20.060	2.850	0.506
813.500	488.244	80.009	19.993	99.893	20.058	2.923	0.504
814.000	488.521	80.007	19.992	99.901	20.060	2.850	0.524
814.500	488.751	80.008	19.993	99.898	20.060	2.824	0.521
815.000	488.986	80.008	19.993	99.864	20.061	2.785	0.486
815.501	489.285	80.008	19.994	99.831	20.062	2.722	0.499
816.000	489.518	80.008	19.992	99.825	20.060	2.821	0.533
816.500	489.769	80.008	19.993	99.822	20.061	2.749	0.508
817.000	490.038	80.007	19.992	99.825	20.063	2.659	0.502
817.500	490.323	80.009	19.992	99.830	20.061	2.790	0.537
818.000	490.574	80.008	19.993	99.837	20.059	2.862	0.545
818.500	490.796	80.009	19.993	99.836	20.059	2.908	0.504
819.000	491.070	80.008	19.994	99.837	20.059	2.881	0.484
819.500	491.351	80.009	19.993	99.835	20.061	2.786	0.525
820.000	491.586	80.007	19.992	99.832	20.061	2.738	0.536
820.500	491.847	80.008	19.992	99.828	20.061	2.770	0.506
821.000	492.153	80.010	19.994	99.824	20.059	2.855	0.532
821.500	492.389	80.009	19.992	99.819	20.057	2.990	0.555
822.000	492.643	80.008	19.992	99.816	20.056	3.041	0.516
822.500	492.890	80.008	19.993	99.811	20.057	3.021	0.496
823.000	493.176	80.009	19.993	99.809	20.059	2.899	0.517
823.500	493.428	80.007	19.993	99.812	20.058	2.942	0.536
824.000	493.679	80.007	19.993	99.816	20.057	3.000	0.521
824.500	493.965	80.006	19.993	99.818	20.057	3.020	0.520
825.000	494.226	80.007	19.991	99.823	20.057	2.996	0.541
825.500	494.489	80.007	19.992	99.827	20.059	2.878	0.535
826.000	494.761	80.005	19.992	99.827	20.057	3.012	0.530
826.500	495.008	80.007	19.993	99.823	20.058	2.949	0.527
827.000	495.259	80.008	19.993	99.822	20.055	3.109	0.509
827.500	495.512	80.004	19.992	99.817	20.056	3.056	0.501
828.000	495.801	80.006	19.992	99.815	20.058	2.930	0.523
828.500	496.032	80.008	19.994	99.817	20.057	2.986	0.531
829.000	496.348	80.008	19.991	99.823	20.056	3.080	0.534
829.500	496.561	80.008	19.993	99.829	20.055	3.119	0.538
830.000	496.839	80.010	19.992	99.835	20.059	2.899	0.510
830.500	497.113	80.010	19.993	99.838	20.060	2.802	0.521
831.000	497.366	80.010	19.993	99.838	20.055	3.102	0.539
831.500	497.630	80.008	19.993	99.839	20.056	3.073	0.522
832.000	497.889	80.009	19.994	99.837	20.056	3.080	0.520
832.500	498.128	80.009	19.995	99.835	20.059	2.853	0.511
833.000	498.397	80.010	19.993	99.833	20.058	2.925	0.503
833.500	498.639	80.008	19.992	99.826	20.053	3.243	0.510
834.000	498.890	80.006	19.993	99.818	20.057	3.036	0.502
834.500	499.159	80.007	19.992	99.813	20.053	3.248	0.506
835.000	499.420	80.007	19.992	99.808	20.055	3.127	0.525
835.500	499.646	80.009	19.992	99.804	20.057	2.992	0.509
836.000	499.958	80.007	19.993	99.803	20.058	2.973	0.512
836.500	500.179	80.009	19.993	99.804	20.059	2.903	0.535
837.000	500.417	80.008	19.992	99.809	20.058	2.923	0.496
837.500	500.701	80.007	19.994	99.815	20.057	3.002	0.491
838.000	500.941	80.009	19.994	99.821	20.058	2.923	0.524
838.500	501.194	80.008	19.992	99.823	20.056	3.043	0.509
839.000	501.440	80.007	19.992	99.823	20.060	2.809	0.496
839.500	501.704	80.006	19.993	99.822	20.057	2.978	0.504
840.000	501.968	80.007	19.993	99.820	20.057	3.007	0.519
840.500	502.210	80.006	19.993	99.820	20.060	2.850	0.517
841.000	502.462	80.008	19.995	99.819	20.059	2.867	0.500
841.500	502.731	80.005	19.994	99.821	20.058	2.969	0.508
842.000	502.961	80.008	19.992	99.817	20.059	2.876	0.510
842.500	503.252	80.008	19.992	99.819	20.058	2.956	0.510
843.000	503.437	80.007	19.993	99.819	20.057	3.025	0.498
843.500	503.743	80.007	19.993	99.822	20.059	2.884	0.483
844.000	503.995	80.008	19.992	99.827	20.061	2.768	0.524
844.500	504.269	80.009	19.993	99.834	20.059	2.858	0.542
845.000	504.510	80.009	19.994	99.834	20.058	2.947	0.521
845.500	504.768	80.010	19.992	99.834	20.060	2.792	0.507
846.000	505.020	80.009	19.994	99.836	20.059	2.874	0.504
846.500	505.318	80.009	19.993	99.834	20.058	2.938	0.530
847.000	505.548	80.009	19.993	99.832	20.056	3.049	0.539
847.500	505.787	80.008	19.994	99.828	20.058	2.967	0.498
848.000	506.075	80.009	19.996	99.825	20.056	3.064	0.498
848.500	506.298	80.008	19.994	99.826	20.060	2.823	0.519
849.000	506.602	80.009	19.995	99.828	20.061	2.729	0.519
849.500	506.833	80.009	19.994	99.829	20.058	2.940	0.531
850.000	507.058	80.009	19.993	99.833	20.059	2.915	0.495
850.500	507.376	80.010	19.994	99.836	20.060	2.848	0.500
851.000	507.605	80.011	19.994	99.836	20.060	2.802	0.545
851.500	507.897	80.010	19.995	99.836	20.063	2.662	0.534
852.000	508.099	80.009	19.995	99.830	20.062	2.725	0.508
852.500	508.362	80.011	19.995	99.827	20.062	2.695	0.479
853.000	508.639	80.010	19.994	99.822	20.060	2.813	0.502
853.500	508.925	80.010	19.995	99.816	20.058	2.961	0.552
854.000	509.167	80.009	19.994	99.813	20.055	3.104	0.546
854.500	509.419	80.011	19.993	99.814	20.057	2.999	0.511
855.000	509.663	80.008	19.994	99.814	20.058	2.932	0.495
855.500	509.952	80.011	19.994	99.816	20.057	3.029	0.514
856.000	510.191	80.010	19.994	99.818	20.056	3.086	0.530
856.500	510.465	80.011	19.995	99.817	20.057	3.028	0.521
857.000	510.689	80.009	19.993	99.815	20.059	2.881	0.506
857.500	510.938	80.011	19.994	99.813	20.057	2.988	0.485
858.000	511.211	80.010	19.993	99.808	20.056	3.099	0.497
858.500	511.479	80.010	19.993	99.805	20.056	3.046	0.531
859.000	511.736	80.012	19.993	99.810	20.057	3.028	0.533
859.500	511.959	80.010	19.994	99.817	20.054	3.181	0.503
860.000	512.216	80.010	19.995	99.820	20.056	3.058	0.480
860.500	512.487	80.010	19.994	99.823	20.052	3.318	0.504
861.000	512.715	80.009	19.994	99.824	20.056	3.047	0.513
861.500	512.954	80.011	19.995	99.819	20.055	3.157	0.483
862.000	513.244	80.008	19.995	99.817	20.055	3.105	0.498
862.500	513.505	80.010	19.995	99.818	20.055	3.111	0.540
863.000	513.767	80.008	19.993	99.822	20.057	3.007	0.537
863.500	514.039	80.009	19.995	99.826	20.055	3.140	0.528
864.000	514.296	80.010	19.995	99.828	20.056	3.101	0.531
864.500	514.556	80.011	19.994	99.830	20.053	3.255	0.523
865.000	514.816	80.009	19.996	99.833	20.056	3.058	0.519
865.500	515.054	80.008	19.996	99.833	20.054	3.212	0.510
866.000	515.357	80.008	19.996	99.833	20.055	3.128	0.519
866.500	515.615	80.009	19.996	99.837	20.053	3.275	0.551
867.000	515.873	80.007	19.995	99.837	20.054	3.214	0.539
867.500	516.126	80.008	19.996	99.838	20.056	3.086	0.514
868.000	516.366	80.008	19.994	99.837	20.052	3.304	0.501
868.500	516.626	80.008	19.995	99.834	20.051	3.401	0.496
869.000	516.879	80.007	19.994	99.832	20.056	3.076	0.507
869.500	517.155	80.007	19.995	99.832	20.055	3.147	0.521
870.000	517.366	80.006	19.994	99.832	20.058	2.922	0.508
870.500	517.621	80.007	19.994	99.832	20.051	3.365	0.476
871.000	517.932	80.005	19.994	99.836	20.055	3.139	0.516
871.500	518.199	80.004	19.994	99.838	20.051	3.386	0.572
872.000	518.411	80.003	19.994	99.838	20.051	3.383	0.528
872.500	518.686	79.999	19.994	99.838	20.056	3.086	0.483
873.000	518.922	79.997	19.995	99.838	20.056	3.059	0.499
873.500	519.209	79.996	19.994	99.838	20.055	3.147	0.518
874.000	519.447	79.997	19.994	99.838	20.056	3.074	0.524
874.500	519.698	80.001	19.994	99.838	20.053	3.246	0.507
875.000	519.973	79.998	19.994	99.837	20.054	3.178	0.507
875.500	520.246	80.000	19.992	99.837	20.055	3.146	0.537
876.000	520.482	80.005	19.993	99.836	20.055	3.142	0.529
876.500	520.746	80.004	19.994	99.836	20.055	3.120	0.505
877.000	520.993	80.002	19.993	99.835	20.057	3.036	0.505
877.500	521.238	80.005	19.993	99.834	20.054	3.169	0.501
878.000	521.491	80.005	19.993	99.834	20.058	2.963	0.495
878.500	521.743	80.002	19.994	99.836	20.057	3.033	0.502
879.000	522.019	80.004	19.994	99.837	20.057	2.988	0.516
879.500	522.257	80.001	19.992	99.837	20.057	2.985	0.521
880.000	522.516	79.998	19.993	99.838	20.058	2.939	0.505
880.500	522.785	79.999	19.994	99.839	20.059	2.906	0.512
881.000	523.061	79.995	19.993	99.836	20.058	2.968	0.536
881.500	523.298	79.999	19.993	99.836	20.059	2.915	0.529
882.000	523.556	80.000	19.994	99.838	20.058	2.955	0.504
882.500	523.814	79.998	19.993	99.839	20.057	3.035	0.506
883.000	524.101	79.997	19.994	99.839	20.059	2.860	0.531
883.500	524.363	79.996	19.993	99.842	20.059	2.886	0.547
884.000	524.579	79.996	19.992	99.842	20.056	3.077	0.513
884.500	524.847	79.998	19.994	99.842	20.064	2.603	0.480
885.000	525.094	79.998	19.993	99.843	20.061	2.761	0.500
885.500	525.359	80.000	19.993	99.843	20.061	2.788	0.514
886.000	525.635	79.997	19.994	99.843	20.061	2.790	0.527
886.500	525.887	79.994	19.993	99.843	20.059	2.879	0.535
887.000	526.169	79.990	19.994	99.843	20.060	2.810	0.531
887.500	526.397	79.991	19.994	99.843	20.058	2.966	0.522
888.000	526.645	79.990	19.992	99.842	20.059	2.908	0.493
888.500	526.916	79.987	19.994	99.841	20.059	2.915	0.498
889.000	527.207	79.988	19.994	99.836	20.057	2.993	0.541
889.500	527.450	79.989	19.995	99.834	20.058	2.917	0.548
890.000	527.715	79.988	19.993	99.832	20.057	3.021	0.521
890.500	527.963	79.987	19.993	99.832	20.057	3.009	0.510
891.000	528.245	79.989	19.993	99.833	20.061	2.777	0.521
891.500	528.494	79.988	19.993	99.830	20.054	3.179	0.531
892.000	528.783	79.988	19.993	99.824	20.059	2.877	0.535
892.500	529.073	79.988	19.993	99.818	20.058	2.925	0.559
893.000	529.301	79.989	19.992	99.811	20.058	2.920	0.549
893.500	529.580	79.988	19.993	99.806	20.056	3.061	0.512
894.000	529.816	79.989	19.992	99.811	20.059	2.904	0.511
894.500	530.060	79.988	19.993	99.815	20.055	3.136	0.498
895.000	530.355	79.987	19.991	99.819	20.060	2.814	0.509
895.500	530.577	79.990	19.992	99.821	20.055	3.111	0.528
896.000	530.854	79.987	19.991	99.818	20.058	2.975	0.508
896.500	531.124	79.987	19.993	99.815	20.059	2.891	0.523
897.000	531.370	79.987	19.992	99.812	20.055	3.103	0.532
897.500	531.636	79.988	19.994	99.810	20.057	2.997	0.514
898.000	531.896	79.988	19.993	99.809	20.056	3.072	0.519
898.500	532.125	79.988	19.993	99.811	20.059	2.903	0.508
899.000	532.416	79.991	19.992	99.812	20.058	2.921	0.505
899.500	532.657	79.989	19.993	99.818	20.057	2.983	0.526
900.000	532.904	79.989	19.992	99.825	20.057	3.019	0.510
900.500	533.208	79.992	19.993	99.829	20.056	3.087	0.519
901.000	533.437	79.990	19.992	99.832	20.056	3.063	0.542
901.500	533.742	79.989	19.992	99.837	20.059	2.900	0.534
902.000	533.970	79.989	19.993	99.835	20.058	2.956	0.534
902.500	534.240	79.987	19.993	99.831	20.059	2.856	0.516
903.000	534.505	79.987	19.993	99.827	20.056	3.053	0.516
903.500	534.791	79.989	19.993	99.825	20.059	2.864	0.543
904.000	535.063	79.990	19.993	99.821	20.061	2.780	0.555
904.500	535.275	79.988	19.992	99.817	20.061	2.748	0.520
905.000	535.531	79.989	19.994	99.818	20.058	2.920	0.476
905.500	535.798	79.989	19.993	99.821	20.058	2.949	0.496
906.000	536.092	79.990	19.994	99.824	20.058	2.935	0.542
906.500	536.298	79.992	19.993	99.827	20.057	3.029	0.530
907.000	536.586	79.998	19.992	99.831	20.058	2.930	0.497
907.500	536.822	79.998	19.992	99.835	20.059	2.862	0.509
908.000	537.089	79.997	19.993	99.835	20.058	2.944	0.513
908.500	537.321	79.995	19.993	99.831	20.059	2.867	0.501
909.000	537.551	79.993	19.992	99.825	20.059	2.867	0.481
909.500	537.822	79.991	19.994	99.820	20.057	3.022	0.481
910.000	538.102	79.994	19.995	99.815	20.056	3.053	0.526
910.500	538.372	79.993	19.994	99.817	20.061	2.753	0.550
911.000	538.623	79.992	19.993	99.822	20.056	3.068	0.536
911.500	538.884	79.994	19.992	99.828	20.057	2.996	0.517
912.000	539.125	79.995	19.993	99.833	20.057	3.036	0.507
912.500	539.402	79.997	19.994	99.837	20.057	2.990	0.510
913.000	539.666	79.997	19.993	99.838	20.056	3.061	0.530
913.500	539.882	79.997	19.994	99.839	20.055	3.155	0.510
914.000	540.167	80.000	19.993	99.839	20.054	3.180	0.490
914.500	540.427	79.997	19.992	99.839	20.059	2.911	0.523
915.000	540.668	80.000	19.993	99.838	20.058	2.969	0.523
915.500	540.908	79.998	19.992	99.835	20.056	3.056	0.490
916.000	541.200	80.002	19.993	99.831	20.056	3.094	0.506
916.500	541.463	80.000	19.992	99.826	20.057	2.990	0.544
917.000	541.697	79.996	19.993	99.824	20.056	3.063	0.526
917.500	541.979	79.998	19.994	99.822	20.058	2.947	0.506
918.000	542.205	79.997	19.993	99.823	20.055	3.121	0.512
918.500	542.446	79.999	19.992	99.827	20.059	2.889	0.487
919.001	542.737	79.999	19.993	99.831	20.059	2.898	0.499
919.500	542.996	80.001	19.993	99.833	20.057	3.020	0.541
920.000	543.237	80.001	19.995	99.834	20.056	3.043	0.525
920.500	543.458	79.997	19.994	99.832	20.054	3.201	0.481
