Sample ID:	C:\MCC\MCC Cal\Test\New folder\Cotton_Raw_MCC_30K_min_210708_R2.txt
Sample Weight (mg):	4.47
Heating Rate (C/s):	0.5
Combustor Temp (C):	900
N2 Flow Rate (cc/min):	80
O2 Flow Rate (cc/min):	20
Calibration File:	C:\MCC\MCC Cal\Coeff1 JN10440_30_210304.txt.txt
T Correction Coefficients:	0	1.024463	0
Time Shift (s):	14
*
Time (s)	Temperature (C)	N2 flow rate (cc/min)	O2 flow rate (cc/min)	Flow Rate (cc/min)	Oxygen (%)	HRR (W/g)	Heating rate (C/s)
0.000	109.880	79.995	19.996	99.917	20.199	-0.224	0.001
0.500	109.893	79.996	19.996	99.920	20.198	-0.111	0.002
1.000	109.890	79.994	19.996	99.917	20.196	0.021	0.009
1.500	109.859	79.995	19.995	99.912	20.198	-0.126	-0.012
2.000	109.857	79.994	19.995	99.912	20.200	-0.246	-0.033
2.500	109.870	79.995	19.995	99.913	20.195	0.055	-0.011
3.000	109.844	79.994	19.996	99.915	20.194	0.153	-0.001
3.500	109.837	79.994	19.995	99.920	20.196	0.017	-0.023
4.000	109.833	79.993	19.997	99.925	20.196	-0.008	-0.022
4.500	109.833	79.998	19.996	99.930	20.196	0.032	-0.007
5.000	109.833	79.994	19.995	99.928	20.196	0.031	-0.002
5.500	109.856	79.995	19.996	99.926	20.199	-0.193	0.012
6.000	109.844	79.995	19.995	99.926	20.196	0.019	0.017
6.500	109.814	79.995	19.996	99.926	20.197	-0.046	-0.016
7.000	109.821	79.998	19.996	99.926	20.195	0.061	-0.033
7.500	109.822	79.994	19.995	99.930	20.199	-0.183	-0.007
8.000	109.838	79.995	19.996	99.929	20.199	-0.164	0.013
8.500	109.858	79.996	19.995	99.929	20.195	0.054	0.027
9.000	109.839	79.995	19.995	99.929	20.196	0.027	0.018
9.501	109.843	79.995	19.995	99.929	20.199	-0.161	-0.007
10.001	109.831	79.994	19.995	99.928	20.196	-0.013	-0.011
10.500	109.798	79.993	19.995	99.930	20.193	0.233	-0.027
11.000	109.802	79.996	19.994	99.928	20.193	0.248	-0.037
11.500	109.819	79.995	19.996	99.928	20.192	0.287	-0.004
12.000	109.794	79.996	19.995	99.926	20.191	0.369	0.007
12.500	109.813	79.995	19.996	99.925	20.195	0.050	-0.007
13.000	109.808	79.992	19.996	99.921	20.191	0.331	0.004
13.500	109.795	79.995	19.995	99.915	20.194	0.168	-0.003
14.000	109.814	79.996	19.995	99.912	20.191	0.344	-0.006
14.500	109.782	79.994	19.994	99.907	20.192	0.291	-0.003
15.000	109.775	79.996	19.996	99.910	20.194	0.145	-0.026
15.501	109.798	79.995	19.996	99.910	20.192	0.298	-0.012
16.001	109.803	79.999	19.995	99.909	20.195	0.067	0.022
16.501	109.830	79.995	19.995	99.909	20.193	0.229	0.029
17.000	109.792	79.996	19.996	99.914	20.194	0.172	0.011
17.500	109.793	79.997	19.994	99.914	20.193	0.216	-0.024
18.000	109.788	79.993	19.995	99.920	20.194	0.174	-0.020
18.500	109.801	79.997	19.995	99.928	20.193	0.233	0.002
19.001	109.771	79.994	19.996	99.933	20.191	0.392	-0.005
19.501	109.773	79.997	19.995	99.935	20.194	0.130	-0.023
20.000	109.771	79.996	19.994	99.936	20.191	0.363	-0.014
20.500	109.747	79.998	19.995	99.940	20.189	0.488	-0.013
21.000	109.749	79.994	19.996	99.947	20.191	0.335	-0.024
21.500	109.763	79.995	19.995	99.955	20.190	0.450	-0.003
22.001	109.772	79.996	19.995	99.963	20.189	0.526	0.020
22.501	109.781	79.995	19.996	99.970	20.189	0.490	0.020
23.001	109.777	79.995	19.996	99.975	20.187	0.668	0.011
23.501	109.806	79.997	19.995	99.976	20.187	0.645	0.015
24.001	109.779	79.996	19.996	99.977	20.184	0.875	0.014
24.501	109.827	79.995	19.995	99.975	20.186	0.747	0.012
25.000	109.772	79.998	19.996	99.976	20.186	0.739	0.007
25.500	109.780	79.995	19.996	99.976	20.184	0.848	-0.027
26.000	109.730	79.995	19.996	99.984	20.185	0.796	-0.044
26.500	109.833	79.995	19.995	99.991	20.183	0.930	0.005
27.000	109.825	79.994	19.996	99.999	20.186	0.741	0.074
27.500	109.811	79.994	19.996	100.007	20.181	1.072	0.036
28.000	109.821	79.993	19.996	100.015	20.184	0.837	-0.013
28.500	109.810	79.995	19.995	100.017	20.182	0.978	-0.002
29.000	109.868	79.994	19.995	100.018	20.181	1.068	0.023
29.500	109.898	79.993	19.997	100.018	20.183	0.915	0.068
30.000	109.918	79.995	19.996	100.017	20.179	1.189	0.069
30.500	109.948	79.994	19.996	100.019	20.180	1.156	0.050
31.000	109.983	79.993	19.996	100.024	20.175	1.512	0.058
31.500	109.965	79.993	19.996	100.033	20.176	1.430	0.041
32.000	110.039	79.994	19.996	100.047	20.175	1.467	0.037
32.500	110.033	79.993	19.996	100.062	20.173	1.629	0.062
33.000	110.090	79.993	19.997	100.076	20.171	1.752	0.059
33.500	110.126	79.992	19.996	100.086	20.168	1.943	0.072
34.000	110.150	79.994	19.997	100.095	20.170	1.817	0.077
34.500	110.205	79.993	19.996	100.101	20.172	1.677	0.070
35.000	110.238	79.995	19.996	100.104	20.171	1.787	0.084
35.500	110.277	79.994	19.996	100.108	20.169	1.913	0.080
36.000	110.311	79.993	19.997	100.110	20.172	1.723	0.072
36.500	110.391	79.993	19.996	100.108	20.170	1.850	0.093
37.000	110.408	79.994	19.995	100.104	20.170	1.808	0.105
37.500	110.477	79.993	19.996	100.106	20.166	2.106	0.091
38.000	110.524	79.994	19.996	100.106	20.169	1.930	0.101
38.500	110.567	79.993	19.996	100.106	20.165	2.187	0.103
39.000	110.589	79.993	19.996	100.110	20.167	2.072	0.078
39.500	110.673	79.993	19.996	100.113	20.166	2.080	0.086
40.000	110.755	79.994	19.996	100.114	20.162	2.394	0.136
40.500	110.810	79.993	19.996	100.117	20.163	2.296	0.151
41.000	110.849	79.993	19.994	100.120	20.161	2.438	0.116
41.500	110.947	79.994	19.996	100.122	20.163	2.331	0.116
42.000	111.059	79.995	19.996	100.124	20.160	2.541	0.174
42.500	111.107	79.994	19.995	100.127	20.157	2.764	0.185
43.000	111.148	79.994	19.995	100.129	20.161	2.427	0.124
43.500	111.248	79.994	19.996	100.130	20.162	2.371	0.115
44.000	111.318	79.995	19.996	100.132	20.159	2.576	0.156
44.500	111.405	79.994	19.996	100.134	20.159	2.586	0.164
45.000	111.498	79.998	19.996	100.135	20.156	2.781	0.168
45.500	111.568	79.995	19.996	100.137	20.158	2.685	0.171
46.000	111.619	79.995	19.995	100.141	20.159	2.588	0.142
46.500	111.755	79.996	19.996	100.147	20.159	2.636	0.154
47.000	111.801	79.994	19.995	100.148	20.158	2.703	0.184
47.500	111.914	79.996	19.996	100.147	20.157	2.722	0.171
48.000	112.007	79.995	19.996	100.145	20.154	2.948	0.183
48.500	112.075	79.996	19.995	100.141	20.154	2.967	0.184
49.000	112.165	79.997	19.995	100.138	20.158	2.657	0.159
49.500	112.285	79.996	19.996	100.141	20.156	2.791	0.184
50.000	112.385	79.996	19.996	100.146	20.154	2.927	0.215
50.500	112.489	79.995	19.995	100.147	20.156	2.839	0.212
51.000	112.591	79.996	19.995	100.147	20.155	2.894	0.205
51.500	112.711	79.997	19.996	100.147	20.156	2.812	0.214
52.000	112.830	79.995	19.996	100.148	20.152	3.057	0.230
52.500	112.915	79.997	19.995	100.150	20.156	2.818	0.222
53.000	113.035	79.995	19.996	100.155	20.152	3.061	0.205
53.500	113.131	79.996	19.996	100.160	20.151	3.130	0.211
54.000	113.265	79.995	19.996	100.165	20.154	2.973	0.223
54.500	113.348	79.994	19.996	100.166	20.154	2.932	0.223
55.000	113.498	79.996	19.996	100.166	20.150	3.233	0.225
55.500	113.601	79.997	19.997	100.166	20.152	3.101	0.243
56.000	113.692	79.995	19.996	100.168	20.149	3.273	0.223
56.500	113.873	79.995	19.997	100.168	20.152	3.093	0.233
57.000	113.983	79.997	19.997	100.168	20.148	3.352	0.282
57.501	114.092	79.994	19.996	100.168	20.151	3.160	0.255
58.001	114.236	79.995	19.998	100.168	20.151	3.185	0.236
58.500	114.368	79.995	19.997	100.168	20.150	3.252	0.264
59.000	114.472	79.993	19.997	100.168	20.148	3.400	0.256
59.500	114.616	79.994	19.996	100.168	20.150	3.249	0.242
60.000	114.759	79.995	19.996	100.168	20.151	3.170	0.268
60.501	114.880	79.994	19.997	100.171	20.149	3.285	0.276
61.001	115.027	79.993	19.996	100.173	20.151	3.130	0.266
61.500	115.152	79.994	19.996	100.173	20.151	3.158	0.270
62.000	115.299	79.996	19.997	100.173	20.150	3.250	0.272
62.500	115.458	79.995	19.997	100.173	20.151	3.145	0.289
63.001	115.608	79.994	19.997	100.170	20.155	2.858	0.308
63.501	115.716	79.994	19.996	100.170	20.153	3.024	0.284
64.000	115.875	79.996	19.997	100.169	20.150	3.218	0.262
64.500	116.035	79.997	19.996	100.169	20.147	3.450	0.293
65.001	116.176	79.995	19.996	100.169	20.148	3.392	0.310
65.501	116.306	79.996	19.995	100.169	20.149	3.327	0.286
66.000	116.490	79.996	19.995	100.168	20.147	3.463	0.292
66.500	116.644	79.997	19.997	100.168	20.149	3.277	0.326
67.000	116.763	79.997	19.996	100.169	20.146	3.543	0.305
67.500	116.932	79.998	19.996	100.169	20.146	3.532	0.280
68.001	117.056	79.996	19.996	100.169	20.146	3.494	0.291
68.501	117.251	79.997	19.995	100.170	20.144	3.628	0.306
69.001	117.394	79.996	19.996	100.171	20.148	3.346	0.329
69.500	117.568	79.998	19.994	100.172	20.148	3.348	0.328
70.000	117.738	79.996	19.995	100.174	20.148	3.402	0.330
70.500	117.888	79.998	19.995	100.174	20.147	3.450	0.332
71.000	118.028	79.997	19.995	100.173	20.149	3.325	0.305
71.500	118.204	79.996	19.995	100.172	20.148	3.381	0.303
72.000	118.399	79.998	19.995	100.171	20.145	3.586	0.343
72.500	118.558	79.997	19.995	100.169	20.148	3.396	0.362
73.000	118.710	79.998	19.995	100.168	20.146	3.486	0.333
73.500	118.873	79.998	19.995	100.168	20.151	3.180	0.313
74.000	119.033	79.997	19.994	100.168	20.145	3.578	0.319
74.500	119.234	79.998	19.995	100.168	20.147	3.457	0.342
75.001	119.386	80.000	19.994	100.168	20.148	3.383	0.357
75.501	119.586	79.998	19.995	100.168	20.148	3.392	0.353
76.000	119.756	79.998	19.995	100.168	20.145	3.549	0.361
76.500	119.939	79.998	19.995	100.168	20.150	3.208	0.361
77.001	120.078	79.998	19.994	100.168	20.148	3.377	0.337
77.501	120.271	79.995	19.995	100.168	20.153	3.053	0.328
78.001	120.485	79.997	19.995	100.168	20.149	3.276	0.370
78.500	120.646	79.999	19.995	100.169	20.150	3.212	0.390
79.000	120.840	79.997	19.996	100.168	20.151	3.139	0.365
79.500	120.997	79.996	19.995	100.168	20.150	3.255	0.353
80.000	121.176	79.996	19.995	100.168	20.150	3.260	0.343
80.500	121.368	79.994	19.995	100.167	20.153	3.042	0.354
81.000	121.528	79.995	19.995	100.168	20.150	3.201	0.361
81.500	121.741	79.995	19.995	100.169	20.148	3.346	0.362
82.000	121.899	79.996	19.995	100.168	20.151	3.136	0.372
82.500	122.094	79.995	19.996	100.168	20.146	3.484	0.362
83.000	122.293	79.995	19.995	100.168	20.150	3.249	0.374
83.500	122.479	79.995	19.996	100.167	20.149	3.280	0.389
84.000	122.678	79.997	19.995	100.169	20.149	3.298	0.385
84.500	122.866	79.995	19.995	100.172	20.147	3.445	0.386
85.000	123.065	79.994	19.997	100.172	20.153	2.994	0.387
85.500	123.243	79.996	19.996	100.173	20.151	3.170	0.382
86.000	123.421	79.993	19.995	100.174	20.149	3.335	0.366
86.500	123.640	79.994	19.995	100.172	20.149	3.297	0.376
87.000	123.824	79.995	19.996	100.175	20.149	3.266	0.400
87.500	124.010	79.993	19.996	100.176	20.147	3.408	0.387
88.000	124.226	79.995	19.995	100.176	20.144	3.625	0.386
88.500	124.414	79.996	19.994	100.176	20.148	3.352	0.403
89.001	124.618	79.996	19.996	100.177	20.145	3.594	0.398
89.501	124.807	79.995	19.995	100.182	20.147	3.414	0.392
90.001	124.995	79.995	19.996	100.169	20.147	3.443	0.385
90.501	125.186	79.991	19.996	100.144	20.149	3.314	0.378
91.000	125.387	79.993	19.994	100.123	20.149	3.308	0.385
91.501	125.604	79.995	19.995	100.109	20.142	3.791	0.405
92.001	125.780	79.995	19.995	100.109	20.145	3.548	0.405
92.500	126.041	79.994	19.995	100.156	20.142	3.774	0.415
93.001	126.216	79.995	19.996	100.201	20.147	3.458	0.437
93.501	126.416	79.995	19.997	100.230	20.145	3.554	0.405
94.000	126.607	79.994	19.995	100.249	20.146	3.504	0.383
94.500	126.845	79.996	19.995	100.241	20.144	3.647	0.410
95.000	127.019	79.996	19.996	100.208	20.146	3.521	0.421
95.500	127.230	79.994	19.995	100.192	20.148	3.389	0.399
96.000	127.401	79.996	19.995	100.185	20.153	3.046	0.384
96.500	127.621	79.996	19.995	100.184	20.147	3.435	0.387
97.000	127.823	79.996	19.995	100.185	20.151	3.192	0.406
97.500	128.060	79.993	19.995	100.188	20.150	3.228	0.431
98.000	128.287	79.996	19.996	100.187	20.150	3.232	0.452
98.500	128.479	79.997	19.995	100.186	20.148	3.384	0.441
99.000	128.687	79.996	19.995	100.187	20.147	3.438	0.409
99.500	128.946	79.993	19.996	100.185	20.150	3.210	0.433
100.000	129.106	79.996	19.995	100.183	20.145	3.566	0.443
100.500	129.365	79.994	19.994	100.187	20.150	3.236	0.419
101.000	129.562	79.995	19.995	100.187	20.145	3.604	0.438
101.500	129.777	79.994	19.994	100.187	20.147	3.447	0.434
102.000	130.003	79.996	19.995	100.188	20.148	3.378	0.426
102.500	130.181	79.993	19.994	100.187	20.145	3.579	0.422
103.000	130.404	79.996	19.995	100.186	20.147	3.462	0.402
103.500	130.616	79.996	19.995	100.186	20.148	3.348	0.418
104.000	130.824	79.995	19.996	100.186	20.148	3.338	0.428
104.500	131.045	79.994	19.995	100.187	20.148	3.349	0.424
105.000	131.255	79.995	19.995	100.186	20.152	3.061	0.430
105.500	131.484	79.995	19.994	100.183	20.145	3.584	0.436
106.000	131.701	79.994	19.995	100.183	20.147	3.431	0.443
106.500	131.905	79.994	19.995	100.183	20.150	3.216	0.433
107.000	132.128	79.994	19.994	100.186	20.146	3.498	0.424
107.500	132.341	79.996	19.995	100.188	20.150	3.205	0.432
108.000	132.548	79.995	19.994	100.188	20.149	3.287	0.428
108.500	132.774	79.994	19.995	100.186	20.150	3.258	0.426
109.000	133.043	79.993	19.995	100.193	20.148	3.400	0.463
109.500	133.276	79.996	19.994	100.158	20.147	3.419	0.498
110.000	133.490	79.994	19.995	100.123	20.145	3.586	0.475
110.500	133.687	79.996	19.995	100.107	20.151	3.161	0.429
111.000	133.934	79.993	19.996	100.100	20.150	3.234	0.427
111.500	134.176	79.995	19.995	100.092	20.150	3.226	0.466
112.000	134.396	79.995	19.995	100.148	20.151	3.130	0.475
112.500	134.636	79.993	19.995	100.214	20.148	3.362	0.461
113.000	134.864	79.994	19.994	100.248	20.150	3.237	0.464
113.500	135.110	79.995	19.996	100.261	20.151	3.159	0.471
114.000	135.359	79.993	19.995	100.260	20.145	3.605	0.485
114.501	135.556	79.994	19.995	100.233	20.153	3.044	0.470
115.001	135.801	79.994	19.995	100.199	20.148	3.375	0.444
115.500	136.004	79.994	19.996	100.182	20.148	3.354	0.445
116.000	136.230	79.995	19.997	100.180	20.149	3.274	0.438
116.500	136.460	79.994	19.995	100.180	20.151	3.193	0.443
117.000	136.681	79.994	19.996	100.181	20.148	3.400	0.454
117.500	136.974	79.994	19.996	100.181	20.151	3.185	0.483
118.000	137.185	79.994	19.997	100.182	20.149	3.320	0.509
118.500	137.408	79.995	19.995	100.178	20.151	3.147	0.469
119.000	137.664	79.992	19.997	100.177	20.150	3.241	0.456
119.500	137.881	79.994	19.996	100.176	20.149	3.312	0.476
120.000	138.100	79.994	19.996	100.174	20.149	3.295	0.455
120.500	138.375	79.996	19.996	100.174	20.151	3.136	0.465
121.000	138.591	79.995	19.997	100.177	20.149	3.281	0.493
121.501	138.840	79.995	19.996	100.179	20.150	3.262	0.478
122.001	139.057	79.997	19.995	100.183	20.152	3.122	0.465
122.500	139.298	79.995	19.996	100.188	20.152	3.105	0.462
123.000	139.554	79.996	19.997	100.185	20.150	3.224	0.478
123.500	139.806	79.995	19.996	100.182	20.148	3.381	0.502
124.000	139.991	79.995	19.996	100.179	20.146	3.530	0.472
124.500	140.259	79.994	19.997	100.174	20.147	3.417	0.445
125.000	140.475	79.997	19.997	100.171	20.147	3.421	0.469
125.500	140.760	79.996	19.995	100.176	20.153	3.013	0.492
126.000	140.971	79.995	19.995	100.179	20.145	3.586	0.498
126.500	141.187	79.996	19.996	100.180	20.146	3.509	0.462
127.000	141.449	79.996	19.995	100.182	20.151	3.149	0.453
127.500	141.672	79.994	19.995	100.181	20.151	3.193	0.482
128.000	141.904	79.996	19.996	100.177	20.148	3.346	0.470
128.500	142.137	79.996	19.995	100.175	20.148	3.398	0.460
129.000	142.381	79.998	19.995	100.174	20.149	3.289	0.471
129.500	142.628	79.997	19.995	100.176	20.148	3.400	0.484
130.000	142.874	79.997	19.995	100.179	20.149	3.285	0.492
130.500	143.133	79.997	19.997	100.179	20.146	3.488	0.499
131.000	143.347	79.995	19.995	100.180	20.149	3.304	0.489
131.500	143.614	79.995	19.995	100.180	20.148	3.360	0.477
132.000	143.861	79.996	19.996	100.176	20.148	3.383	0.497
132.500	144.110	79.997	19.995	100.177	20.149	3.287	0.505
133.000	144.348	79.997	19.996	100.182	20.147	3.421	0.492
133.500	144.602	79.998	19.996	100.184	20.149	3.291	0.490
134.000	144.878	79.995	19.996	100.184	20.150	3.210	0.510
134.500	145.092	79.995	19.997	100.183	20.149	3.316	0.510
135.000	145.354	79.996	19.996	100.178	20.150	3.229	0.483
135.500	145.618	79.996	19.995	100.173	20.150	3.226	0.501
136.000	145.872	79.996	19.996	100.172	20.150	3.206	0.522
136.500	146.111	79.996	19.996	100.173	20.151	3.190	0.506
137.000	146.350	79.994	19.997	100.173	20.153	3.027	0.486
137.500	146.583	79.994	19.995	100.175	20.149	3.296	0.475
138.000	146.825	79.996	19.996	100.177	20.147	3.405	0.473
138.500	147.065	79.994	19.996	100.175	20.149	3.292	0.479
139.000	147.279	79.995	19.996	100.174	20.149	3.266	0.468
139.500	147.561	79.995	19.996	100.174	20.150	3.209	0.475
140.000	147.792	79.994	19.996	100.171	20.149	3.268	0.504
140.500	148.042	79.995	19.996	100.173	20.149	3.272	0.497
141.000	148.289	79.995	19.996	100.176	20.149	3.324	0.489
141.500	148.554	79.995	19.996	100.176	20.151	3.148	0.505
142.000	148.823	79.994	19.996	100.176	20.148	3.376	0.523
142.500	149.077	79.995	19.997	100.176	20.150	3.244	0.528
143.000	149.313	79.995	19.996	100.174	20.152	3.109	0.506
143.500	149.586	79.996	19.996	100.170	20.151	3.163	0.499
144.000	149.807	79.995	19.995	100.170	20.147	3.412	0.502
144.500	150.058	79.995	19.997	100.170	20.150	3.241	0.483
145.000	150.335	79.995	19.996	100.170	20.150	3.199	0.500
145.500	150.566	79.994	19.997	100.170	20.150	3.212	0.518
146.000	150.813	79.994	19.997	100.169	20.149	3.279	0.493
146.500	151.051	79.997	19.997	100.169	20.151	3.189	0.482
147.000	151.286	79.996	19.995	100.172	20.146	3.503	0.479
147.500	151.542	79.995	19.996	100.181	20.148	3.350	0.481
148.000	151.809	79.996	19.996	100.145	20.147	3.448	0.507
148.500	152.055	79.996	19.995	100.114	20.146	3.521	0.518
149.000	152.294	79.997	19.997	100.096	20.148	3.362	0.499
149.500	152.586	79.997	19.996	100.086	20.152	3.111	0.508
150.000	152.817	79.997	19.995	100.074	20.152	3.118	0.527
150.500	153.068	79.997	19.997	100.125	20.146	3.488	0.502
151.000	153.333	79.997	19.997	100.194	20.150	3.231	0.498
151.500	153.558	79.999	19.997	100.230	20.147	3.473	0.503
152.000	153.826	79.998	19.996	100.248	20.150	3.235	0.492
152.500	154.073	79.997	19.996	100.258	20.146	3.478	0.504
153.000	154.296	79.996	19.996	100.248	20.150	3.237	0.492
153.500	154.562	79.997	19.996	100.212	20.148	3.394	0.479
154.000	154.806	79.997	19.996	100.193	20.150	3.247	0.499
154.500	155.072	79.996	19.994	100.184	20.152	3.122	0.510
155.000	155.283	79.996	19.996	100.177	20.150	3.249	0.493
155.500	155.514	79.997	19.995	100.172	20.150	3.212	0.460
156.000	155.792	79.996	19.995	100.172	20.155	2.894	0.476
156.500	156.060	79.996	19.996	100.172	20.151	3.189	0.527
157.000	156.325	79.996	19.995	100.172	20.149	3.312	0.539
157.500	156.572	79.997	19.995	100.171	20.153	3.038	0.522
158.000	156.801	79.995	19.995	100.171	20.148	3.342	0.494
158.500	157.098	79.995	19.996	100.171	20.148	3.342	0.501
159.000	157.319	79.997	19.995	100.172	20.152	3.057	0.522
159.500	157.590	79.996	19.995	100.171	20.147	3.448	0.505
160.001	157.788	79.995	19.995	100.171	20.149	3.283	0.480
160.501	158.074	79.994	19.995	100.170	20.149	3.275	0.477
161.000	158.295	79.994	19.995	100.171	20.150	3.208	0.496
161.500	158.548	79.994	19.995	100.171	20.152	3.095	0.490
162.000	158.809	79.994	19.996	100.172	20.152	3.110	0.494
162.500	159.066	79.995	19.995	100.172	20.151	3.149	0.517
163.000	159.345	79.995	19.995	100.173	20.155	2.879	0.527
163.500	159.617	79.995	19.996	100.171	20.149	3.312	0.543
164.000	159.813	79.995	19.996	100.171	20.153	3.041	0.509
164.500	160.083	79.995	19.994	100.171	20.153	3.022	0.467
165.000	160.343	79.993	19.995	100.171	20.149	3.313	0.498
165.500	160.546	79.993	19.995	100.172	20.146	3.486	0.497
166.000	160.852	79.994	19.995	100.173	20.150	3.227	0.485
166.500	161.098	79.994	19.996	100.172	20.148	3.352	0.530
167.000	161.353	79.994	19.995	100.173	20.152	3.084	0.527
167.500	161.583	79.995	19.995	100.173	20.149	3.302	0.493
168.000	161.863	79.994	19.996	100.173	20.149	3.271	0.497
168.500	162.104	79.994	19.995	100.172	20.151	3.172	0.515
169.000	162.374	79.994	19.995	100.173	20.151	3.158	0.516
169.500	162.602	79.994	19.995	100.172	20.148	3.346	0.505
170.000	162.887	79.995	19.995	100.170	20.147	3.412	0.506
170.500	163.116	79.992	19.995	100.169	20.154	2.970	0.514
171.000	163.383	79.993	19.994	100.169	20.151	3.162	0.505
171.500	163.622	79.994	19.996	100.163	20.152	3.064	0.501
172.000	163.883	79.995	19.996	100.161	20.148	3.363	0.503
172.500	164.143	79.993	19.994	100.161	20.149	3.283	0.511
173.000	164.421	79.993	19.995	100.161	20.151	3.182	0.529
173.500	164.676	79.994	19.996	100.160	20.151	3.162	0.535
174.000	164.904	79.994	19.996	100.163	20.146	3.511	0.509
174.500	165.180	79.993	19.995	100.163	20.147	3.460	0.494
175.000	165.463	79.994	19.996	100.163	20.147	3.422	0.531
175.500	165.682	79.993	19.995	100.164	20.151	3.144	0.531
176.000	165.956	79.994	19.995	100.166	20.147	3.438	0.498
176.500	166.191	79.995	19.995	100.168	20.151	3.193	0.501
177.000	166.456	79.995	19.995	100.170	20.148	3.355	0.504
177.500	166.724	79.995	19.995	100.171	20.153	3.039	0.517
178.000	166.958	79.993	19.996	100.171	20.147	3.456	0.518
178.500	167.221	79.994	19.995	100.170	20.147	3.413	0.499
179.000	167.444	79.993	19.995	100.169	20.146	3.483	0.491
179.500	167.701	79.994	19.996	100.166	20.150	3.241	0.484
180.000	167.967	79.994	19.996	100.158	20.149	3.273	0.502
180.500	168.225	79.995	19.996	100.150	20.153	3.026	0.523
181.000	168.487	79.995	19.995	100.147	20.148	3.359	0.522
181.500	168.729	79.994	19.995	100.147	20.150	3.263	0.511
182.000	168.992	79.995	19.995	100.149	20.149	3.288	0.504
182.500	169.239	79.994	19.995	100.156	20.146	3.491	0.508
183.000	169.505	79.994	19.995	100.161	20.150	3.242	0.512
183.500	169.707	79.996	19.996	100.165	20.150	3.229	0.491
184.000	169.964	79.995	19.995	100.178	20.151	3.165	0.463
184.500	170.225	79.995	19.996	100.144	20.147	3.447	0.488
185.000	170.502	79.994	19.995	100.111	20.149	3.286	0.528
185.500	170.735	79.993	19.995	100.092	20.152	3.068	0.524
186.000	170.995	79.995	19.995	100.078	20.149	3.284	0.502
186.500	171.237	79.993	19.995	100.060	20.150	3.250	0.498
187.000	171.505	79.996	19.995	100.098	20.152	3.098	0.506
187.500	171.750	79.994	19.995	100.167	20.151	3.183	0.512
188.000	172.001	79.996	19.996	100.206	20.150	3.219	0.504
188.500	172.244	79.994	19.994	100.223	20.150	3.230	0.494
189.000	172.481	79.994	19.995	100.230	20.155	2.912	0.487
189.500	172.733	79.993	19.995	100.225	20.153	3.035	0.485
190.000	172.984	79.995	19.996	100.189	20.157	2.740	0.496
190.500	173.264	79.992	19.995	100.165	20.154	2.932	0.517
191.000	173.487	79.996	19.995	100.161	20.154	2.918	0.517
191.500	173.749	79.996	19.996	100.159	20.151	3.136	0.494
192.000	174.030	79.996	19.995	100.160	20.153	2.985	0.514
192.500	174.251	79.994	19.996	100.158	20.154	2.964	0.522
193.000	174.483	79.993	19.994	100.156	20.155	2.870	0.478
193.500	174.759	79.995	19.994	100.154	20.150	3.237	0.481
194.000	175.008	79.993	19.996	100.151	20.151	3.175	0.517
194.500	175.264	79.994	19.995	100.147	20.154	2.926	0.515
195.000	175.492	79.993	19.995	100.142	20.152	3.083	0.494
195.500	175.751	79.992	19.996	100.144	20.153	2.994	0.485
196.000	175.988	79.994	19.995	100.141	20.152	3.074	0.492
196.500	176.273	79.995	19.995	100.141	20.156	2.780	0.509
197.000	176.509	79.995	19.994	100.142	20.153	3.028	0.522
197.500	176.720	79.994	19.995	100.145	20.154	2.965	0.484
198.000	177.018	79.995	19.995	100.143	20.150	3.230	0.478
198.500	177.246	79.994	19.995	100.143	20.156	2.815	0.517
199.000	177.516	79.996	19.995	100.138	20.156	2.800	0.512
199.500	177.779	79.993	19.995	100.140	20.156	2.809	0.516
200.000	178.022	79.996	19.996	100.139	20.155	2.903	0.519
200.500	178.314	79.995	19.995	100.139	20.152	3.058	0.520
201.000	178.550	79.994	19.995	100.140	20.153	3.000	0.531
201.500	178.781	79.996	19.995	100.140	20.152	3.105	0.498
202.000	179.024	79.996	19.995	100.138	20.156	2.813	0.471
202.500	179.272	79.994	19.996	100.140	20.151	3.130	0.482
203.000	179.548	79.997	19.996	100.142	20.155	2.899	0.507
203.500	179.781	79.996	19.995	100.145	20.151	3.136	0.517
204.000	180.043	79.996	19.996	100.129	20.152	3.068	0.502
204.500	180.274	79.995	19.996	100.097	20.147	3.471	0.494
205.000	180.513	79.995	19.996	100.079	20.154	2.942	0.481
205.500	180.778	79.996	19.995	100.070	20.152	3.073	0.487
206.000	181.024	79.997	19.996	100.069	20.150	3.212	0.508
206.500	181.282	79.996	19.997	100.102	20.150	3.202	0.508
207.000	181.560	79.996	19.996	100.177	20.152	3.087	0.520
207.500	181.748	79.996	19.995	100.208	20.154	2.985	0.501
208.000	182.040	79.997	19.996	100.219	20.152	3.074	0.473
208.500	182.274	79.996	19.995	100.219	20.151	3.167	0.503
209.001	182.508	79.998	19.995	100.203	20.148	3.338	0.497
209.500	182.773	79.997	19.996	100.158	20.150	3.215	0.484
210.000	182.991	79.996	19.995	100.142	20.152	3.108	0.491
210.500	183.295	79.997	19.995	100.136	20.151	3.132	0.502
211.000	183.522	79.996	19.996	100.134	20.153	3.029	0.526
211.500	183.759	79.995	19.996	100.134	20.147	3.416	0.498
212.000	184.023	79.996	19.996	100.133	20.148	3.355	0.482
212.500	184.279	79.996	19.996	100.113	20.147	3.406	0.510
213.000	184.535	79.995	19.996	100.085	20.148	3.362	0.516
213.500	184.737	79.997	19.996	100.071	20.147	3.443	0.485
214.000	184.977	79.996	19.995	100.065	20.147	3.471	0.449
214.500	185.252	79.996	19.996	100.066	20.152	3.092	0.478
215.000	185.497	79.996	19.996	100.089	20.150	3.238	0.518
215.500	185.749	79.995	19.995	100.122	20.150	3.257	0.508
216.000	186.019	79.996	19.996	100.159	20.152	3.071	0.510
216.500	186.263	79.995	19.996	100.207	20.152	3.079	0.519
217.000	186.520	79.995	19.996	100.220	20.151	3.171	0.508
217.501	186.786	79.996	19.996	100.224	20.151	3.153	0.512
218.001	187.034	79.996	19.996	100.222	20.151	3.132	0.518
218.501	187.254	79.996	19.996	100.200	20.153	3.012	0.491
219.001	187.502	79.996	19.995	100.157	20.156	2.839	0.468
219.500	187.739	79.994	19.995	100.145	20.151	3.161	0.477
220.000	187.999	79.995	19.996	100.140	20.154	2.981	0.491
220.500	188.244	79.995	19.996	100.135	20.155	2.887	0.501
221.000	188.478	79.995	19.996	100.134	20.155	2.864	0.492
221.500	188.730	79.995	19.996	100.134	20.154	2.928	0.482
222.000	188.986	79.996	19.996	100.134	20.153	3.000	0.497
222.500	189.211	79.996	19.995	100.133	20.153	2.995	0.494
223.000	189.447	79.997	19.996	100.134	20.153	3.031	0.471
223.500	189.740	79.996	19.995	100.134	20.154	2.964	0.496
224.000	189.971	79.996	19.995	100.133	20.154	2.966	0.527
224.500	190.163	79.996	19.996	100.132	20.156	2.801	0.474
225.000	190.455	79.996	19.995	100.132	20.153	3.027	0.453
225.500	190.706	79.996	19.996	100.131	20.157	2.753	0.513
226.000	190.941	79.996	19.996	100.131	20.157	2.771	0.515
226.500	191.180	79.996	19.995	100.131	20.157	2.709	0.480
227.000	191.420	79.996	19.995	100.132	20.156	2.818	0.476
227.500	191.664	79.997	19.995	100.132	20.158	2.638	0.482
228.000	191.910	79.997	19.995	100.132	20.159	2.591	0.487
228.500	192.152	79.996	19.996	100.132	20.153	3.017	0.488
229.000	192.394	79.997	19.995	100.132	20.155	2.887	0.486
229.500	192.638	79.997	19.996	100.130	20.156	2.836	0.485
230.000	192.887	79.997	19.996	100.130	20.157	2.742	0.489
230.500	193.153	79.996	19.996	100.130	20.157	2.734	0.504
231.000	193.379	79.995	19.996	100.130	20.152	3.077	0.504
231.500	193.617	79.996	19.995	100.131	20.151	3.178	0.478
232.000	193.861	79.996	19.996	100.135	20.152	3.079	0.473
232.500	194.163	79.995	19.995	100.136	20.152	3.075	0.514
233.000	194.392	79.996	19.996	100.136	20.155	2.904	0.538
233.500	194.605	79.995	19.996	100.137	20.153	3.052	0.486
234.000	194.884	79.996	19.996	100.136	20.156	2.841	0.467
234.500	195.126	79.995	19.996	100.134	20.150	3.230	0.507
235.000	195.347	79.996	19.996	100.133	20.153	3.044	0.492
235.500	195.581	79.996	19.997	100.133	20.157	2.744	0.459
236.000	195.830	79.995	19.996	100.131	20.151	3.127	0.469
236.500	196.106	79.994	19.996	100.131	20.152	3.058	0.504
237.000	196.339	79.996	19.996	100.131	20.151	3.134	0.517
237.500	196.565	79.995	19.995	100.131	20.153	2.998	0.484
238.000	196.790	79.995	19.996	100.131	20.152	3.109	0.455
238.500	197.075	79.996	19.996	100.131	20.150	3.199	0.480
239.000	197.332	79.994	19.996	100.131	20.151	3.144	0.526
239.500	197.569	79.993	19.995	100.131	20.150	3.255	0.518
240.000	197.786	79.995	19.995	100.131	20.149	3.322	0.474
240.500	198.030	79.995	19.995	100.132	20.150	3.199	0.458
241.000	198.299	79.994	19.995	100.131	20.155	2.857	0.487
241.500	198.559	79.994	19.996	100.130	20.154	2.945	0.521
242.000	198.792	79.995	19.995	100.131	20.153	3.010	0.511
242.500	199.002	79.994	19.996	100.130	20.152	3.092	0.468
243.000	199.282	79.995	19.996	100.129	20.150	3.234	0.466
243.500	199.483	79.996	19.995	100.129	20.146	3.494	0.485
244.000	199.764	79.995	19.996	100.127	20.152	3.090	0.481
244.500	199.997	79.994	19.995	100.127	20.152	3.083	0.498
245.000	200.246	79.997	19.995	100.127	20.151	3.146	0.498
245.500	200.460	79.995	19.995	100.127	20.151	3.180	0.473
246.000	200.697	79.996	19.995	100.127	20.150	3.263	0.457
246.500	200.920	79.994	19.995	100.130	20.147	3.452	0.455
247.000	201.193	79.996	19.996	100.130	20.150	3.226	0.478
247.500	201.417	79.995	19.995	100.130	20.152	3.077	0.496
248.000	201.700	79.995	19.996	100.130	20.151	3.186	0.501
248.500	201.915	79.996	19.995	100.130	20.147	3.416	0.502
249.000	202.158	79.996	19.995	100.130	20.151	3.173	0.478
249.500	202.432	79.995	19.995	100.130	20.149	3.299	0.488
250.000	202.635	79.995	19.995	100.130	20.146	3.481	0.497
250.500	202.882	79.995	19.995	100.130	20.147	3.446	0.463
251.000	203.115	79.996	19.995	100.130	20.151	3.188	0.465
251.500	203.350	79.995	19.996	100.130	20.148	3.349	0.474
252.000	203.595	79.995	19.995	100.130	20.143	3.689	0.474
252.500	203.859	79.995	19.996	100.130	20.147	3.452	0.494
253.000	204.099	79.996	19.995	100.130	20.147	3.425	0.507
253.500	204.339	79.994	19.995	100.131	20.149	3.307	0.492
254.000	204.552	79.994	19.994	100.131	20.145	3.559	0.466
254.500	204.844	79.995	19.994	100.131	20.148	3.400	0.479
255.000	205.042	79.995	19.995	100.131	20.148	3.377	0.498
255.500	205.311	79.996	19.996	100.131	20.146	3.475	0.479
256.000	205.545	79.995	19.995	100.130	20.150	3.253	0.485
256.500	205.806	79.995	19.994	100.130	20.149	3.299	0.499
257.000	206.043	79.995	19.995	100.130	20.149	3.327	0.497
257.500	206.267	79.996	19.996	100.130	20.147	3.416	0.480
258.000	206.524	79.995	19.995	100.130	20.146	3.515	0.470
258.500	206.782	79.995	19.995	100.131	20.151	3.155	0.498
259.000	207.025	79.996	19.994	100.132	20.148	3.385	0.508
259.500	207.280	79.995	19.996	100.132	20.148	3.347	0.499
260.000	207.500	79.996	19.996	100.133	20.148	3.397	0.486
260.500	207.757	79.995	19.996	100.133	20.144	3.655	0.476
261.000	207.998	79.995	19.996	100.132	20.145	3.594	0.488
261.500	208.228	79.995	19.995	100.130	20.146	3.540	0.484
262.000	208.487	79.995	19.996	100.130	20.144	3.653	0.480
262.500	208.714	79.995	19.995	100.129	20.142	3.755	0.488
263.000	208.940	79.995	19.995	100.129	20.145	3.592	0.470
263.500	209.197	79.994	19.996	100.130	20.143	3.716	0.468
264.000	209.442	79.997	19.995	100.130	20.147	3.422	0.493
264.500	209.684	79.995	19.996	100.129	20.142	3.766	0.495
265.000	209.910	79.995	19.996	100.129	20.143	3.713	0.477
265.500	210.133	79.996	19.996	100.129	20.140	3.954	0.458
266.000	210.428	79.996	19.996	100.128	20.143	3.711	0.483
266.500	210.607	79.996	19.995	100.128	20.144	3.670	0.496
267.000	210.931	79.995	19.996	100.127	20.141	3.875	0.489
267.500	211.153	79.994	19.996	100.124	20.140	3.925	0.524
268.000	211.407	79.994	19.996	100.124	20.139	3.986	0.511
268.500	211.621	79.995	19.996	100.124	20.143	3.753	0.473
269.000	211.887	79.993	19.996	100.125	20.146	3.531	0.474
269.500	212.134	79.993	19.996	100.126	20.144	3.640	0.496
270.000	212.395	79.995	19.995	100.130	20.141	3.860	0.510
270.500	212.620	79.994	19.996	100.130	20.144	3.629	0.497
271.000	212.872	79.994	19.995	100.131	20.144	3.678	0.481
271.500	213.122	79.993	19.995	100.130	20.144	3.675	0.489
272.000	213.341	79.995	19.995	100.131	20.138	4.048	0.486
272.500	213.620	79.994	19.995	100.132	20.142	3.806	0.484
273.000	213.830	79.993	19.996	100.133	20.140	3.920	0.493
273.500	214.106	79.995	19.996	100.133	20.142	3.817	0.487
274.000	214.360	79.994	19.996	100.133	20.136	4.187	0.508
274.500	214.588	79.994	19.995	100.132	20.137	4.109	0.506
275.000	214.825	79.996	19.995	100.132	20.138	4.045	0.473
275.500	215.029	79.995	19.995	100.131	20.138	4.049	0.453
276.000	215.273	79.995	19.994	100.132	20.138	4.080	0.445
276.500	215.518	79.994	19.995	100.132	20.134	4.345	0.469
277.000	215.792	79.995	19.995	100.133	20.134	4.346	0.504
277.500	216.027	79.994	19.995	100.132	20.134	4.324	0.514
278.000	216.259	79.994	19.995	100.133	20.138	4.078	0.488
278.500	216.488	79.994	19.996	100.135	20.136	4.226	0.464
279.000	216.765	79.995	19.994	100.135	20.130	4.596	0.483
279.500	216.980	79.996	19.995	100.136	20.134	4.360	0.499
280.000	217.280	79.995	19.995	100.136	20.129	4.697	0.504
280.500	217.513	79.994	19.994	100.135	20.131	4.555	0.524
281.000	217.763	79.996	19.995	100.134	20.132	4.504	0.507
281.500	218.012	79.996	19.994	100.142	20.135	4.274	0.491
282.000	218.233	79.995	19.995	100.133	20.130	4.625	0.485
282.500	218.482	79.996	19.995	100.106	20.127	4.855	0.470
283.000	218.730	79.996	19.995	100.087	20.133	4.397	0.484
283.500	218.972	79.997	19.995	100.072	20.128	4.749	0.494
284.000	219.213	79.996	19.994	100.059	20.130	4.601	0.486
284.500	219.467	79.995	19.995	100.068	20.129	4.681	0.489
285.000	219.728	79.995	19.995	100.115	20.131	4.572	0.505
285.500	219.991	79.996	19.995	100.171	20.132	4.523	0.520
286.000	220.164	79.997	19.995	100.205	20.130	4.639	0.480
286.500	220.457	79.996	19.995	100.219	20.129	4.703	0.451
287.000	220.695	79.995	19.995	100.219	20.126	4.877	0.499
287.500	220.958	79.996	19.994	100.199	20.128	4.791	0.516
288.000	221.169	79.996	19.995	100.162	20.125	4.971	0.488
288.500	221.389	79.997	19.996	100.144	20.129	4.668	0.453
289.000	221.650	79.996	19.995	100.137	20.125	4.944	0.456
289.500	221.908	79.997	19.994	100.136	20.127	4.847	0.500
290.000	222.150	79.997	19.996	100.140	20.126	4.895	0.509
290.500	222.376	79.996	19.994	100.142	20.127	4.808	0.484
291.000	222.624	79.996	19.995	100.139	20.129	4.720	0.471
291.500	222.907	79.996	19.995	100.139	20.124	5.023	0.502
292.000	223.157	79.995	19.995	100.144	20.121	5.277	0.532
292.500	223.378	79.995	19.996	100.146	20.123	5.099	0.502
293.000	223.607	79.996	19.995	100.150	20.122	5.178	0.460
293.500	223.878	79.996	19.995	100.151	20.124	5.057	0.475
294.000	224.094	79.996	19.995	100.149	20.124	5.017	0.493
294.500	224.343	79.996	19.995	100.143	20.123	5.141	0.476
295.000	224.620	79.995	19.996	100.135	20.120	5.296	0.495
295.500	224.888	79.995	19.996	100.130	20.123	5.103	0.535
296.000	225.108	79.995	19.996	100.131	20.119	5.411	0.516
296.500	225.357	79.995	19.996	100.135	20.119	5.373	0.478
297.000	225.629	79.993	19.995	100.136	20.116	5.598	0.495
297.500	225.873	79.993	19.996	100.139	20.120	5.336	0.519
298.000	226.093	79.995	19.996	100.138	20.120	5.313	0.491
298.500	226.350	79.995	19.996	100.139	20.118	5.489	0.470
299.000	226.618	79.995	19.995	100.141	20.119	5.407	0.501
299.500	226.888	79.994	19.995	100.143	20.116	5.602	0.531
300.000	227.106	79.994	19.996	100.144	20.110	6.058	0.513
300.500	227.365	79.994	19.996	100.146	20.115	5.664	0.483
301.000	227.608	79.995	19.996	100.147	20.113	5.794	0.489
301.500	227.858	79.996	19.996	100.143	20.112	5.905	0.498
302.000	228.111	79.995	19.995	100.140	20.114	5.735	0.498
302.500	228.374	79.995	19.996	100.140	20.115	5.676	0.509
303.000	228.622	79.993	19.996	100.139	20.112	5.910	0.513
303.500	228.896	79.996	19.995	100.137	20.110	6.021	0.517
304.000	229.157	79.996	19.995	100.141	20.109	6.130	0.528
304.500	229.391	79.995	19.995	100.140	20.111	5.973	0.515
305.000	229.643	79.998	19.996	100.139	20.110	6.049	0.491
305.500	229.897	79.997	19.996	100.138	20.107	6.240	0.496
306.000	230.177	79.998	19.996	100.137	20.108	6.182	0.520
306.500	230.383	79.997	19.995	100.131	20.104	6.451	0.510
307.000	230.664	79.998	19.995	100.131	20.104	6.453	0.487
307.500	230.917	79.997	19.995	100.131	20.106	6.298	0.510
308.000	231.174	79.998	19.996	100.130	20.107	6.218	0.522
308.500	231.425	79.996	19.995	100.129	20.106	6.295	0.509
309.000	231.645	79.997	19.995	100.130	20.103	6.482	0.490
309.500	231.894	79.996	19.994	100.129	20.102	6.598	0.470
310.000	232.153	79.997	19.996	100.130	20.103	6.504	0.489
310.500	232.382	79.999	19.995	100.130	20.102	6.577	0.498
311.000	232.645	79.998	19.996	100.130	20.105	6.409	0.490
311.500	232.916	79.998	19.995	100.133	20.105	6.374	0.512
312.000	233.132	79.998	19.996	100.139	20.102	6.556	0.510
312.500	233.400	79.997	19.995	100.142	20.102	6.615	0.486
313.000	233.634	79.996	19.996	100.149	20.103	6.536	0.493
313.500	233.887	79.996	19.996	100.155	20.098	6.843	0.494
314.000	234.131	79.997	19.996	100.157	20.097	6.957	0.492
314.501	234.390	79.996	19.997	100.157	20.101	6.663	0.500
315.000	234.615	79.997	19.996	100.154	20.099	6.814	0.493
315.500	234.886	79.996	19.997	100.147	20.094	7.161	0.490
316.000	235.142	79.997	19.995	100.140	20.094	7.131	0.512
316.500	235.379	79.995	19.996	100.135	20.096	7.040	0.510
317.000	235.658	79.996	19.995	100.132	20.096	6.998	0.504
317.500	235.909	79.995	19.996	100.134	20.091	7.384	0.523
318.000	236.131	79.996	19.996	100.139	20.092	7.254	0.502
318.500	236.369	79.994	19.996	100.145	20.091	7.363	0.466
319.000	236.626	79.996	19.996	100.147	20.094	7.130	0.478
319.500	236.902	79.995	19.997	100.149	20.088	7.586	0.514
320.000	237.129	79.993	19.997	100.152	20.089	7.512	0.518
320.500	237.363	79.994	19.996	100.155	20.086	7.673	0.482
321.000	237.643	79.994	19.997	100.157	20.091	7.343	0.488
321.500	237.907	79.994	19.996	100.163	20.088	7.541	0.529
322.000	238.118	79.994	19.996	100.166	20.086	7.692	0.509
322.500	238.396	79.993	19.997	100.167	20.084	7.864	0.482
323.000	238.659	79.994	19.997	100.164	20.087	7.633	0.515
323.500	238.886	79.993	19.997	100.162	20.085	7.747	0.515
324.000	239.159	79.994	19.997	100.156	20.087	7.602	0.495
324.500	239.408	79.995	19.996	100.152	20.082	7.989	0.511
325.001	239.642	79.995	19.997	100.151	20.085	7.799	0.503
325.500	239.912	79.994	19.996	100.154	20.079	8.207	0.494
326.000	240.165	79.995	19.997	100.155	20.083	7.945	0.513
326.500	240.389	79.994	19.996	100.161	20.078	8.272	0.500
327.000	240.616	79.994	19.997	100.163	20.080	8.119	0.464
327.500	240.914	79.995	19.996	100.157	20.079	8.196	0.487
328.000	241.155	79.995	19.996	100.152	20.081	8.041	0.532
328.500	241.391	79.995	19.996	100.151	20.079	8.205	0.508
329.000	241.647	79.993	19.996	100.149	20.081	8.085	0.485
329.500	241.923	79.995	19.996	100.151	20.072	8.709	0.512
330.000	242.144	79.996	19.996	100.155	20.075	8.502	0.515
330.500	242.414	79.996	19.996	100.159	20.075	8.454	0.494
331.000	242.683	79.994	19.996	100.161	20.069	8.878	0.515
331.500	242.908	79.996	19.996	100.163	20.068	8.950	0.517
332.000	243.163	79.996	19.997	100.164	20.072	8.700	0.487
332.500	243.403	79.996	19.996	100.167	20.071	8.757	0.487
333.000	243.667	79.997	19.995	100.166	20.069	8.884	0.500
333.500	243.905	79.996	19.996	100.166	20.068	8.981	0.503
334.000	244.148	79.996	19.995	100.166	20.070	8.855	0.491
334.500	244.403	79.995	19.995	100.166	20.067	9.024	0.490
335.000	244.655	79.995	19.995	100.167	20.065	9.173	0.503
335.500	244.922	79.998	19.996	100.168	20.068	8.991	0.513
336.000	245.130	79.993	19.995	100.168	20.064	9.215	0.497
336.500	245.397	79.995	19.995	100.168	20.061	9.426	0.475
337.000	245.687	79.995	19.996	100.168	20.063	9.328	0.516
337.500	245.884	79.995	19.995	100.168	20.061	9.468	0.522
338.000	246.164	79.994	19.995	100.168	20.062	9.378	0.482
338.501	246.437	79.997	19.995	100.168	20.058	9.682	0.515
339.000	246.673	79.995	19.995	100.168	20.058	9.644	0.531
339.500	246.897	79.994	19.995	100.169	20.056	9.792	0.484
340.000	247.186	79.996	19.995	100.169	20.056	9.769	0.486
340.500	247.417	79.995	19.995	100.169	20.053	10.033	0.517
341.000	247.691	79.996	19.995	100.169	20.053	9.989	0.513
341.500	247.925	79.995	19.995	100.167	20.048	10.386	0.506
342.000	248.193	79.994	19.996	100.166	20.050	10.236	0.505
342.500	248.439	79.993	19.995	100.167	20.045	10.600	0.508
343.000	248.697	79.995	19.995	100.168	20.046	10.531	0.509
343.500	248.937	79.996	19.996	100.169	20.046	10.495	0.501
344.000	249.191	79.994	19.996	100.171	20.049	10.277	0.496
344.500	249.480	79.996	19.995	100.172	20.047	10.447	0.519
345.000	249.723	79.993	19.995	100.172	20.047	10.458	0.538
345.500	249.995	79.995	19.995	100.171	20.047	10.414	0.524
346.000	250.246	79.994	19.995	100.170	20.042	10.773	0.519
346.500	250.508	79.994	19.996	100.171	20.046	10.518	0.518
347.000	250.736	79.996	19.996	100.171	20.044	10.633	0.501
347.500	251.030	79.996	19.996	100.171	20.046	10.497	0.506
348.000	251.253	79.995	19.995	100.171	20.043	10.730	0.520
348.500	251.515	79.995	19.996	100.172	20.038	11.075	0.501
349.000	251.788	79.994	19.995	100.171	20.038	11.088	0.510
349.500	251.993	79.995	19.996	100.171	20.039	11.006	0.506
350.000	252.291	79.995	19.996	100.171	20.037	11.160	0.491
350.500	252.547	79.994	19.995	100.172	20.030	11.614	0.529
351.000	252.789	79.995	19.996	100.172	20.035	11.250	0.525
351.500	253.029	79.995	19.996	100.173	20.033	11.438	0.490
352.000	253.282	79.995	19.995	100.173	20.029	11.698	0.488
352.500	253.519	79.994	19.995	100.173	20.030	11.610	0.492
353.000	253.765	79.994	19.996	100.173	20.030	11.637	0.486
353.500	254.020	79.994	19.996	100.174	20.031	11.524	0.492
354.000	254.250	79.994	19.996	100.174	20.030	11.639	0.493
354.500	254.511	79.995	19.995	100.174	20.026	11.882	0.488
355.000	254.756	79.995	19.996	100.174	20.029	11.712	0.499
355.500	254.972	79.996	19.996	100.174	20.026	11.912	0.484
356.000	255.242	79.994	19.996	100.174	20.025	11.992	0.473
356.500	255.492	79.994	19.996	100.173	20.026	11.936	0.503
357.000	255.772	79.994	19.994	100.174	20.024	12.063	0.525
357.500	256.003	79.994	19.995	100.173	20.025	11.991	0.521
358.000	256.313	79.994	19.997	100.173	20.024	12.068	0.526
358.500	256.520	79.995	19.995	100.172	20.021	12.219	0.529
359.000	256.782	79.996	19.995	100.173	20.022	12.181	0.493
359.500	257.001	79.994	19.996	100.173	20.024	12.049	0.475
360.000	257.301	79.993	19.995	100.172	20.022	12.175	0.500
360.500	257.540	79.996	19.995	100.174	20.019	12.395	0.529
361.000	257.781	79.996	19.995	100.175	20.018	12.437	0.510
361.500	258.042	79.995	19.994	100.176	20.021	12.273	0.491
362.000	258.295	79.996	19.996	100.176	20.013	12.811	0.508
362.500	258.520	79.996	19.996	100.178	20.016	12.581	0.496
363.000	258.785	79.997	19.995	100.178	20.015	12.648	0.484
363.500	259.052	79.996	19.995	100.178	20.017	12.556	0.511
364.000	259.294	79.999	19.994	100.178	20.015	12.677	0.521
364.500	259.535	79.997	19.995	100.180	20.011	12.981	0.496
365.000	259.755	79.997	19.995	100.178	20.013	12.842	0.472
365.500	260.013	79.997	19.995	100.177	20.010	13.037	0.470
366.000	260.269	79.997	19.994	100.179	20.009	13.097	0.496
366.500	260.519	79.997	19.994	100.183	20.007	13.256	0.510
367.000	260.770	79.997	19.995	100.182	20.007	13.258	0.503
367.500	261.054	79.996	19.994	100.181	20.005	13.379	0.518
368.000	261.232	79.998	19.995	100.180	20.008	13.157	0.499
368.500	261.517	79.997	19.995	100.177	20.003	13.528	0.463
369.000	261.743	79.996	19.995	100.174	20.006	13.311	0.487
369.500	262.015	79.995	19.994	100.175	20.004	13.472	0.504
370.000	262.229	79.997	19.995	100.176	19.999	13.771	0.492
370.500	262.510	79.996	19.996	100.178	19.997	13.899	0.491
371.000	262.767	79.997	19.995	100.177	19.996	13.989	0.517
371.500	262.995	79.996	19.995	100.174	19.997	13.962	0.511
372.000	263.286	79.996	19.996	100.173	19.996	14.003	0.502
372.500	263.533	79.998	19.997	100.175	19.996	14.004	0.528
373.000	263.804	79.996	19.995	100.176	19.994	14.119	0.528
373.500	264.039	79.995	19.995	100.175	19.994	14.144	0.512
374.000	264.303	79.996	19.995	100.176	19.991	14.362	0.503
374.500	264.555	79.996	19.995	100.176	19.990	14.435	0.507
375.000	264.795	79.996	19.995	100.176	19.986	14.719	0.504
375.500	265.028	79.996	19.996	100.176	19.986	14.673	0.482
376.000	265.280	79.997	19.994	100.177	19.987	14.661	0.479
376.500	265.564	79.996	19.996	100.178	19.989	14.463	0.510
377.000	265.778	79.995	19.995	100.180	19.984	14.850	0.517
377.500	266.030	79.995	19.995	100.181	19.985	14.797	0.482
378.000	266.289	79.996	19.996	100.181	19.984	14.843	0.489
378.500	266.548	79.995	19.996	100.182	19.980	15.090	0.515
379.000	266.757	79.995	19.995	100.186	19.981	15.079	0.493
379.500	267.046	79.996	19.995	100.191	19.981	15.054	0.483
380.000	267.263	79.996	19.995	100.191	19.976	15.401	0.502
380.500	267.549	79.996	19.996	100.190	19.976	15.420	0.504
381.000	267.794	79.996	19.995	100.189	19.975	15.487	0.517
381.500	268.026	79.996	19.996	100.189	19.980	15.106	0.504
382.000	268.285	79.996	19.995	100.189	19.971	15.742	0.484
382.500	268.571	79.996	19.995	100.190	19.973	15.603	0.518
383.000	268.812	79.996	19.996	100.195	19.972	15.714	0.536
383.500	269.061	79.997	19.995	100.202	19.970	15.831	0.508
384.000	269.298	79.995	19.995	100.203	19.968	15.984	0.488
384.500	269.508	79.996	19.995	100.201	19.966	16.135	0.467
385.000	269.770	79.996	19.995	100.201	19.964	16.222	0.460
385.500	269.976	79.998	19.995	100.201	19.961	16.444	0.470
386.000	270.274	79.996	19.995	100.201	19.966	16.135	0.485
386.500	270.529	79.997	19.996	100.201	19.963	16.298	0.529
387.000	270.833	79.997	19.996	100.202	19.964	16.216	0.556
387.500	271.047	79.996	19.994	100.198	19.965	16.181	0.538
388.000	271.298	79.996	19.995	100.197	19.958	16.665	0.491
388.500	271.554	79.998	19.995	100.197	19.959	16.592	0.486
389.000	271.835	79.998	19.995	100.197	19.954	16.949	0.522
389.500	272.071	79.997	19.995	100.197	19.957	16.723	0.527
390.000	272.367	79.997	19.995	100.203	19.956	16.801	0.524
390.500	272.576	79.997	19.996	100.202	19.950	17.192	0.519
391.000	272.825	79.997	19.995	100.202	19.949	17.299	0.482
391.500	273.076	79.996	19.995	100.202	19.949	17.259	0.479
392.000	273.362	79.997	19.995	100.203	19.950	17.228	0.518
392.500	273.592	79.996	19.995	100.203	19.944	17.656	0.526
393.000	273.835	79.998	19.996	100.205	19.945	17.537	0.495
393.500	274.088	79.997	19.995	100.206	19.940	17.925	0.485
394.000	274.322	79.998	19.994	100.207	19.940	17.926	0.492
394.500	274.581	79.996	19.995	100.206	19.938	18.088	0.490
395.000	274.855	79.997	19.994	100.206	19.936	18.209	0.513
395.500	275.121	79.996	19.994	100.206	19.935	18.280	0.537
396.000	275.365	79.996	19.995	100.206	19.935	18.268	0.525
396.500	275.612	79.996	19.995	100.204	19.935	18.241	0.500
397.000	275.861	79.995	19.995	100.204	19.933	18.447	0.494
397.500	276.142	79.996	19.996	100.204	19.927	18.843	0.513
398.000	276.355	79.994	19.995	100.205	19.925	18.994	0.512
398.500	276.618	79.994	19.995	100.206	19.924	19.070	0.485
399.000	276.882	79.994	19.995	100.208	19.923	19.148	0.501
399.500	277.122	79.993	19.995	100.209	19.923	19.098	0.516
400.000	277.362	79.994	19.995	100.211	19.918	19.445	0.492
400.500	277.641	79.996	19.996	100.211	19.916	19.577	0.499
401.000	277.880	79.994	19.996	100.211	19.915	19.694	0.518
401.500	278.131	79.994	19.996	100.211	19.912	19.895	0.504
402.000	278.397	79.994	19.996	100.211	19.911	19.931	0.503
402.500	278.609	79.996	19.996	100.211	19.911	19.960	0.497
403.000	278.871	79.993	19.996	100.211	19.908	20.182	0.476
403.500	279.090	79.994	19.996	100.211	19.908	20.170	0.478
404.000	279.355	79.994	19.996	100.213	19.903	20.498	0.482
404.500	279.633	79.994	19.996	100.216	19.901	20.628	0.514
405.000	279.911	79.994	19.996	100.223	19.903	20.521	0.550
405.500	280.123	79.994	19.996	100.229	19.900	20.696	0.523
406.000	280.373	79.994	19.996	100.230	19.899	20.785	0.476
406.500	280.615	79.993	19.996	100.229	19.894	21.117	0.477
407.000	280.888	79.994	19.996	100.228	19.897	20.942	0.503
407.500	281.140	79.993	19.995	100.227	19.897	20.910	0.520
408.000	281.388	79.994	19.996	100.223	19.891	21.353	0.513
408.500	281.616	79.995	19.995	100.228	19.889	21.513	0.488
409.001	281.844	79.994	19.996	100.235	19.887	21.609	0.466
409.501	282.120	79.993	19.995	100.240	19.887	21.669	0.480
410.000	282.369	79.994	19.996	100.241	19.883	21.914	0.514
410.500	282.602	79.995	19.996	100.246	19.880	22.104	0.503
411.000	282.906	79.994	19.997	100.247	19.881	22.050	0.509
411.500	283.136	79.994	19.996	100.247	19.877	22.306	0.536
412.000	283.379	79.994	19.996	100.247	19.875	22.466	0.504
412.500	283.593	79.994	19.998	100.245	19.872	22.692	0.465
413.000	283.849	79.995	19.996	100.246	19.868	22.964	0.464
413.500	284.089	79.994	19.996	100.246	19.867	23.056	0.483
414.000	284.332	79.996	19.996	100.244	19.864	23.215	0.489
414.500	284.579	79.995	19.996	100.239	19.861	23.454	0.486
415.000	284.829	79.994	19.995	100.240	19.861	23.422	0.494
415.501	285.077	79.993	19.996	100.240	19.860	23.537	0.498
416.001	285.329	79.995	19.996	100.241	19.856	23.794	0.499
416.500	285.567	79.994	19.996	100.243	19.853	24.005	0.495
417.000	285.851	79.994	19.997	100.248	19.853	24.050	0.506
417.500	286.056	79.996	19.996	100.249	19.853	24.045	0.506
418.000	286.335	79.994	19.995	100.249	19.845	24.571	0.486
418.500	286.594	79.995	19.996	100.250	19.841	24.832	0.511
419.000	286.837	79.994	19.995	100.250	19.840	24.909	0.520
419.500	287.075	79.995	19.996	100.249	19.839	25.001	0.491
420.000	287.349	79.994	19.995	100.248	19.839	24.999	0.497
420.500	287.581	79.995	19.995	100.248	19.834	25.335	0.510
421.000	287.852	79.995	19.995	100.248	19.831	25.578	0.505
421.500	288.130	79.995	19.994	100.249	19.831	25.583	0.526
422.000	288.389	79.996	19.995	100.250	19.825	25.974	0.543
422.500	288.586	79.993	19.994	100.253	19.825	25.956	0.497
423.000	288.861	79.994	19.995	100.255	19.824	26.078	0.464
423.500	289.081	79.993	19.995	100.256	19.823	26.118	0.483
424.000	289.357	79.995	19.995	100.256	19.818	26.463	0.495
424.500	289.588	79.994	19.995	100.256	19.816	26.592	0.502
425.000	289.810	79.992	19.995	100.255	19.817	26.548	0.480
425.500	290.090	79.992	19.995	100.253	19.808	27.186	0.477
426.000	290.319	79.994	19.995	100.253	19.811	26.969	0.505
426.500	290.571	79.993	19.995	100.253	19.807	27.245	0.495
427.000	290.869	79.993	19.995	100.256	19.802	27.605	0.515
427.500	291.131	79.995	19.995	100.261	19.799	27.823	0.555
428.000	291.336	79.995	19.995	100.266	19.792	28.309	0.514
428.500	291.601	79.993	19.996	100.272	19.795	28.077	0.469
429.000	291.858	79.995	19.995	100.279	19.795	28.035	0.496
429.500	292.140	79.995	19.995	100.282	19.789	28.454	0.530
430.000	292.338	79.993	19.995	100.281	19.784	28.842	0.510
430.500	292.606	79.995	19.994	100.282	19.781	29.089	0.473
431.000	292.894	79.994	19.995	100.280	19.780	29.142	0.510
431.500	293.143	79.994	19.995	100.276	19.775	29.495	0.546
432.000	293.361	79.994	19.996	100.276	19.778	29.334	0.502
432.500	293.626	79.994	19.996	100.279	19.772	29.715	0.476
433.000	293.845	79.993	19.995	100.280	19.768	29.998	0.484
433.500	294.112	79.995	19.995	100.282	19.766	30.122	0.485
434.000	294.379	79.995	19.995	100.286	19.764	30.261	0.510
434.500	294.630	79.995	19.995	100.286	19.759	30.596	0.526
435.000	294.894	79.995	19.995	100.286	19.758	30.680	0.516
435.500	295.140	79.993	19.995	100.286	19.755	30.901	0.512
436.000	295.414	79.995	19.995	100.286	19.751	31.192	0.515
436.500	295.652	79.995	19.995	100.286	19.744	31.663	0.516
437.000	295.909	79.995	19.995	100.286	19.742	31.781	0.503
437.500	296.157	79.996	19.995	100.286	19.739	32.003	0.500
438.000	296.381	79.995	19.995	100.288	19.739	32.038	0.489
438.500	296.665	79.995	19.996	100.286	19.730	32.666	0.490
439.000	296.904	79.997	19.995	100.255	19.732	32.483	0.515
439.500	297.157	79.996	19.995	100.229	19.730	32.634	0.507
440.000	297.392	79.997	19.995	100.215	19.727	32.871	0.490
440.500	297.680	79.996	19.995	100.205	19.720	33.312	0.506
441.000	297.921	79.997	19.996	100.210	19.721	33.307	0.526
441.500	298.183	79.996	19.995	100.283	19.711	33.976	0.516
442.000	298.416	79.998	19.995	100.338	19.710	34.055	0.499
442.500	298.689	79.996	19.995	100.363	19.709	34.122	0.500
443.000	298.936	79.995	19.994	100.377	19.706	34.333	0.513
443.500	299.196	79.997	19.995	100.380	19.697	34.970	0.513
444.000	299.365	79.997	19.994	100.340	19.698	34.915	0.468
444.500	299.650	79.997	19.995	100.313	19.694	35.136	0.442
445.000	299.912	79.997	19.995	100.307	19.692	35.334	0.501
445.500	300.155	79.997	19.995	100.307	19.691	35.384	0.526
446.000	300.486	79.997	19.995	100.306	19.681	36.068	0.539
446.500	300.733	79.997	19.995	100.312	19.683	35.956	0.576
447.000	300.877	79.996	19.996	100.317	19.680	36.159	0.485
447.500	301.209	79.996	19.995	100.313	19.675	36.487	0.434
448.000	301.436	79.995	19.994	100.310	19.671	36.780	0.518
448.500	301.602	79.997	19.995	100.311	19.666	37.118	0.476
449.000	301.884	79.995	19.995	100.311	19.666	37.120	0.420
449.500	302.181	79.996	19.995	100.313	19.662	37.401	0.514
450.000	302.440	79.997	19.995	100.318	19.653	38.020	0.568
450.500	302.662	79.996	19.994	100.322	19.655	37.900	0.518
451.000	302.896	79.995	19.994	100.324	19.651	38.184	0.468
451.500	303.186	79.995	19.995	100.324	19.643	38.776	0.490
452.000	303.490	79.997	19.994	100.325	19.646	38.569	0.559
452.500	303.685	79.996	19.995	100.326	19.641	38.899	0.547
453.000	303.870	79.996	19.995	100.326	19.637	39.161	0.440
453.500	304.040	79.997	19.994	100.326	19.628	39.807	0.367
454.000	304.324	79.996	19.994	100.327	19.626	39.944	0.404
454.500	304.771	79.996	19.996	100.326	19.623	40.142	0.592
455.000	304.871	79.996	19.995	100.329	19.621	40.318	0.639
455.500	305.262	79.996	19.995	100.329	19.614	40.771	0.519
456.000	305.442	79.995	19.996	100.329	19.608	41.183	0.531
456.500	305.542	79.997	19.994	100.328	19.606	41.358	0.425
457.000	305.893	79.996	19.995	100.329	19.601	41.719	0.365
457.500	306.184	79.996	19.995	100.331	19.599	41.790	0.546
458.000	306.375	79.995	19.996	100.334	19.595	42.089	0.562
458.500	306.564	79.996	19.995	100.341	19.594	42.134	0.431
459.000	307.066	79.995	19.995	100.344	19.585	42.828	0.536
459.500	307.093	79.994	19.995	100.350	19.583	42.943	0.610
460.000	307.391	79.996	19.995	100.349	19.577	43.402	0.427
460.500	307.769	79.996	19.995	100.351	19.570	43.892	0.500
461.000	307.834	79.997	19.994	100.351	19.571	43.848	0.560
461.500	308.179	79.997	19.995	100.352	19.566	44.209	0.427
462.000	308.461	79.996	19.995	100.353	19.560	44.611	0.518
462.500	308.657	79.996	19.995	100.354	19.558	44.758	0.552
463.000	308.903	79.995	19.995	100.356	19.549	45.353	0.460
463.500	309.157	79.996	19.994	100.356	19.546	45.596	0.471
464.000	309.408	79.997	19.994	100.359	19.546	45.594	0.502
464.500	309.647	79.997	19.995	100.361	19.540	45.975	0.497
465.000	309.936	79.997	19.996	100.364	19.533	46.451	0.509
465.500	310.188	79.997	19.994	100.364	19.530	46.711	0.535
466.000	310.432	79.996	19.994	100.366	19.527	46.886	0.518
466.500	310.681	79.996	19.995	100.367	19.519	47.458	0.495
467.000	310.952	79.997	19.996	100.367	19.515	47.762	0.507
467.500	311.165	79.998	19.995	100.368	19.508	48.259	0.502
468.000	311.375	79.997	19.995	100.364	19.507	48.304	0.453
468.500	311.666	79.996	19.995	100.334	19.501	48.758	0.462
469.000	311.877	79.997	19.995	100.317	19.493	49.283	0.502
469.500	312.145	79.998	19.994	100.314	19.489	49.606	0.490
470.000	312.416	79.996	19.996	100.317	19.484	49.923	0.509
470.500	312.628	79.995	19.995	100.327	19.482	50.090	0.511
471.000	312.963	79.997	19.995	100.385	19.475	50.554	0.515
471.500	313.179	79.996	19.995	100.443	19.477	50.454	0.549
472.000	313.445	79.997	19.996	100.460	19.463	51.384	0.516
472.500	313.675	79.996	19.995	100.465	19.458	51.755	0.490
473.000	313.927	79.996	19.995	100.467	19.455	51.977	0.489
473.500	314.181	79.997	19.997	100.446	19.451	52.223	0.494
474.000	314.457	79.995	19.997	100.413	19.441	52.988	0.518
474.500	314.642	79.996	19.995	100.406	19.443	52.847	0.495
475.000	314.927	79.995	19.996	100.407	19.439	53.102	0.465
475.500	315.184	79.994	19.996	100.407	19.429	53.833	0.506
476.000	315.398	79.994	19.996	100.411	19.420	54.470	0.507
476.500	315.649	79.994	19.995	100.413	19.416	54.730	0.468
477.000	315.897	79.993	19.995	100.414	19.410	55.115	0.481
477.500	316.136	79.994	19.995	100.418	19.404	55.597	0.492
478.000	316.415	79.995	19.996	100.420	19.400	55.854	0.503
478.500	316.605	79.993	19.995	100.422	19.395	56.212	0.494
479.000	316.902	79.994	19.995	100.427	19.385	56.893	0.477
479.500	317.169	79.995	19.996	100.433	19.378	57.377	0.525
480.000	317.410	79.993	19.995	100.434	19.372	57.806	0.536
480.500	317.639	79.994	19.995	100.441	19.368	58.121	0.489
481.000	317.897	79.993	19.996	100.443	19.362	58.527	0.479
481.500	318.182	79.995	19.995	100.444	19.356	58.958	0.515
482.000	318.352	79.993	19.996	100.445	19.350	59.380	0.499
482.500	318.607	79.996	19.996	100.446	19.340	60.074	0.440
483.000	318.837	79.994	19.995	100.446	19.332	60.613	0.454
483.500	319.196	79.994	19.996	100.447	19.326	61.067	0.537
484.000	319.433	79.994	19.995	100.453	19.322	61.336	0.593
484.500	319.628	79.994	19.997	100.461	19.313	61.978	0.514
485.000	319.879	79.993	19.995	100.468	19.306	62.509	0.439
485.500	320.163	79.993	19.995	100.475	19.297	63.135	0.490
486.000	320.395	79.992	19.994	100.481	19.289	63.652	0.525
486.500	320.613	79.993	19.995	100.483	19.282	64.200	0.483
487.000	320.878	79.995	19.995	100.483	19.276	64.585	0.466
487.500	321.144	79.994	19.995	100.485	19.267	65.205	0.507
488.000	321.382	79.994	19.995	100.487	19.259	65.778	0.518
488.500	321.603	79.994	19.995	100.490	19.248	66.553	0.482
489.000	321.911	79.994	19.995	100.496	19.241	67.029	0.494
489.500	322.096	79.992	19.995	100.500	19.232	67.669	0.511
490.000	322.353	79.993	19.995	100.501	19.224	68.255	0.468
490.500	322.563	79.993	19.995	100.500	19.215	68.857	0.455
491.000	322.863	79.994	19.995	100.498	19.206	69.531	0.488
491.500	323.093	79.993	19.996	100.498	19.198	70.094	0.519
492.000	323.357	79.995	19.996	100.500	19.188	70.782	0.512
492.500	323.619	79.995	19.996	100.507	19.176	71.659	0.510
493.000	323.866	79.995	19.995	100.515	19.166	72.334	0.517
493.500	324.080	79.995	19.996	100.522	19.160	72.745	0.485
494.000	324.324	79.994	19.996	100.524	19.151	73.381	0.459
494.500	324.599	79.995	19.995	100.526	19.140	74.217	0.488
495.000	324.871	79.996	19.996	100.532	19.129	74.996	0.534
495.500	325.115	79.995	19.996	100.539	19.120	75.610	0.532
496.000	325.339	79.994	19.997	100.546	19.109	76.404	0.492
496.500	325.579	79.994	19.996	100.554	19.097	77.232	0.466
497.000	325.859	79.994	19.997	100.559	19.084	78.119	0.492
497.500	326.098	79.995	19.997	100.560	19.075	78.746	0.519
498.000	326.380	79.994	19.997	100.560	19.063	79.634	0.520
498.500	326.619	79.994	19.996	100.565	19.049	80.556	0.521
499.000	326.866	79.995	19.997	100.567	19.041	81.143	0.503
499.500	327.113	79.994	19.997	100.568	19.028	82.055	0.489
500.000	327.369	79.995	19.996	100.574	19.017	82.842	0.499
500.500	327.621	79.995	19.996	100.582	19.005	83.682	0.506
501.000	327.829	79.995	19.996	100.585	18.994	84.436	0.484
501.500	328.074	79.995	19.996	100.590	18.982	85.296	0.457
502.000	328.343	79.995	19.996	100.597	18.969	86.182	0.484
502.500	328.586	79.995	19.997	100.599	18.959	86.896	0.513
503.000	328.841	79.994	19.996	100.603	18.944	87.900	0.505
503.500	329.098	79.993	19.996	100.611	18.930	88.900	0.505
504.000	329.373	79.994	19.996	100.616	18.917	89.782	0.522
504.500	329.612	79.995	19.996	100.623	18.905	90.645	0.523
505.000	329.867	79.994	19.996	100.630	18.894	91.362	0.504
505.500	330.095	79.994	19.997	100.634	18.880	92.365	0.488
506.000	330.327	79.995	19.996	100.633	18.873	92.845	0.472
506.500	330.587	79.993	19.995	100.637	18.859	93.765	0.476
507.000	330.865	79.993	19.996	100.638	18.849	94.488	0.515
507.500	331.092	79.994	19.995	100.638	18.836	95.363	0.521
508.000	331.329	79.994	19.997	100.638	18.824	96.222	0.484
508.500	331.599	79.994	19.995	100.638	18.810	97.145	0.486
509.000	331.860	79.993	19.996	100.639	18.801	97.801	0.519
509.500	332.113	79.993	19.996	100.639	18.790	98.556	0.523
510.000	332.352	79.994	19.996	100.639	18.779	99.286	0.503
510.500	332.626	79.993	19.996	100.638	18.771	99.807	0.503
511.000	332.859	79.994	19.995	100.632	18.762	100.413	0.510
511.500	333.123	79.994	19.996	100.626	18.758	100.731	0.501
512.000	333.376	79.993	19.996	100.621	18.747	101.432	0.507
512.500	333.607	79.993	19.996	100.614	18.745	101.603	0.501
513.000	333.866	79.994	19.996	100.607	18.736	102.209	0.487
513.500	334.125	79.994	19.995	100.604	18.731	102.536	0.504
514.001	334.392	79.995	19.996	100.600	18.729	102.626	0.522
514.501	334.668	79.995	19.996	100.593	18.726	102.823	0.534
515.000	334.886	79.995	19.996	100.584	18.723	103.026	0.518
515.500	335.153	79.995	19.995	100.568	18.727	102.724	0.489
516.000	335.387	79.995	19.996	100.553	18.726	102.820	0.493
516.500	335.664	79.994	19.995	100.534	18.728	102.638	0.507
517.000	335.887	79.995	19.996	100.510	18.736	102.127	0.506
517.500	336.157	79.995	19.995	100.487	18.738	101.962	0.496
518.000	336.430	79.995	19.996	100.469	18.744	101.563	0.518
518.500	336.674	79.997	19.995	100.446	18.755	100.784	0.530
519.000	336.931	79.995	19.995	100.428	18.763	100.231	0.509
519.500	337.160	79.995	19.995	100.417	18.776	99.273	0.494
520.000	337.415	79.996	19.995	100.404	18.787	98.528	0.485
520.500	337.715	79.996	19.995	100.390	18.798	97.724	0.520
521.000	337.950	79.996	19.995	100.375	18.813	96.646	0.545
521.500	338.223	79.996	19.995	100.358	18.827	95.685	0.522
522.000	338.455	79.997	19.996	100.334	18.845	94.407	0.506
522.500	338.714	79.997	19.995	100.315	18.861	93.319	0.498
523.000	338.950	79.997	19.996	100.295	18.881	91.914	0.493
523.500	339.206	79.995	19.996	100.278	18.898	90.751	0.494
524.000	339.437	79.996	19.995	100.259	18.917	89.393	0.490
524.500	339.671	79.998	19.995	100.244	18.938	87.962	0.476
525.000	339.964	79.998	19.996	100.229	18.959	86.495	0.496
525.500	340.226	79.996	19.996	100.217	18.979	85.037	0.541
526.000	340.510	79.996	19.995	100.204	19.002	83.457	0.551
526.500	340.735	79.997	19.996	100.197	19.028	81.631	0.528
527.000	340.977	79.997	19.996	100.190	19.049	80.206	0.488
527.500	341.222	79.996	19.996	100.183	19.069	78.758	0.477
528.000	341.501	79.995	19.995	100.177	19.095	76.945	0.505
528.500	341.737	79.996	19.995	100.175	19.120	75.233	0.519
529.000	342.006	79.995	19.995	100.171	19.143	73.626	0.510
529.500	342.234	79.995	19.996	100.168	19.165	72.066	0.501
530.000	342.508	79.996	19.995	100.161	19.187	70.550	0.500
530.500	342.771	79.996	19.995	100.156	19.215	68.577	0.520
531.000	343.015	79.995	19.995	100.152	19.238	66.969	0.522
531.500	343.209	79.995	19.995	100.145	19.262	65.298	0.472
532.000	343.493	79.994	19.995	100.139	19.282	63.896	0.458
532.500	343.734	79.996	19.996	100.139	19.309	62.035	0.502
533.000	343.995	79.995	19.995	100.134	19.329	60.611	0.514
533.500	344.261	79.997	19.996	100.132	19.353	58.901	0.514
534.000	344.504	79.995	19.995	100.131	19.380	57.052	0.517
534.500	344.752	79.995	19.995	100.130	19.397	55.846	0.500
535.000	345.041	79.996	19.995	100.128	19.424	53.957	0.515
535.500	345.287	79.995	19.996	100.130	19.444	52.561	0.536
536.000	345.547	79.996	19.995	100.130	19.464	51.186	0.520
536.500	345.756	79.997	19.994	100.131	19.483	49.855	0.487
537.000	346.007	79.995	19.996	100.132	19.504	48.384	0.465
537.500	346.271	79.996	19.995	100.133	19.522	47.108	0.488
538.000	346.505	79.995	19.995	100.132	19.542	45.736	0.507
538.500	346.793	79.997	19.995	100.132	19.560	44.488	0.510
539.000	347.018	79.997	19.995	100.127	19.579	43.136	0.517
539.500	347.282	79.996	19.995	100.124	19.598	41.840	0.500
540.000	347.535	79.997	19.995	100.121	19.613	40.746	0.503
540.500	347.798	79.996	19.995	100.118	19.629	39.638	0.517
541.000	348.035	79.997	19.996	100.119	19.644	38.570	0.508
541.500	348.301	79.997	19.995	100.123	19.661	37.372	0.501
542.000	348.553	79.997	19.996	100.123	19.679	36.168	0.511
542.500	348.812	79.997	19.994	100.126	19.693	35.195	0.515
543.000	349.110	79.997	19.995	100.128	19.707	34.200	0.534
543.500	349.334	79.997	19.995	100.128	19.720	33.306	0.539
544.000	349.620	79.997	19.995	100.129	19.736	32.153	0.516
544.500	349.857	79.998	19.994	100.129	19.749	31.232	0.517
545.000	350.111	79.997	19.994	100.130	19.761	30.395	0.507
545.500	350.343	79.996	19.995	100.129	19.775	29.455	0.488
546.000	350.625	79.998	19.995	100.128	19.784	28.802	0.500
546.500	350.884	79.997	19.995	100.128	19.797	27.917	0.528
547.000	351.128	79.998	19.994	100.130	19.808	27.130	0.522
547.500	351.382	79.998	19.995	100.130	19.819	26.366	0.501
548.000	351.655	79.997	19.994	100.132	19.828	25.747	0.512
548.500	351.889	79.998	19.995	100.134	19.838	25.000	0.517
549.000	352.187	79.997	19.995	100.133	19.848	24.350	0.520
549.500	352.452	79.998	19.994	100.133	19.854	23.915	0.548
550.000	352.691	79.997	19.994	100.133	19.863	23.292	0.533
550.500	352.919	79.997	19.995	100.132	19.872	22.649	0.485
551.000	353.224	79.997	19.995	100.132	19.880	22.102	0.500
551.500	353.441	79.998	19.995	100.132	19.889	21.491	0.528
552.000	353.711	79.997	19.995	100.130	19.895	21.037	0.505
552.500	354.012	79.997	19.996	100.131	19.897	20.923	0.529
553.000	354.258	79.996	19.995	100.131	19.903	20.464	0.559
553.500	354.483	79.997	19.994	100.131	19.911	19.947	0.509
554.000	354.769	79.997	19.996	100.131	19.918	19.414	0.491
554.500	355.014	79.996	19.996	100.133	19.920	19.310	0.521
555.000	355.272	79.995	19.995	100.132	19.925	18.945	0.517
555.500	355.532	79.994	19.996	100.132	19.928	18.738	0.511
556.000	355.791	79.996	19.996	100.132	19.937	18.083	0.518
556.500	356.075	79.995	19.995	100.132	19.941	17.810	0.531
557.000	356.286	79.995	19.996	100.132	19.947	17.411	0.519
557.500	356.576	79.996	19.996	100.129	19.949	17.290	0.498
558.000	356.808	79.995	19.996	100.128	19.955	16.882	0.511
558.500	357.101	79.994	19.997	100.127	19.957	16.681	0.523
559.000	357.340	79.997	19.996	100.126	19.960	16.523	0.529
559.500	357.613	79.996	19.996	100.125	19.963	16.300	0.522
560.001	357.877	79.996	19.997	100.127	19.969	15.900	0.525
560.500	358.172	79.996	19.997	100.127	19.971	15.728	0.548
561.000	358.388	79.995	19.995	100.126	19.973	15.606	0.535
561.500	358.657	79.996	19.996	100.126	19.974	15.543	0.498
562.000	358.955	79.996	19.996	100.126	19.979	15.190	0.526
562.500	359.169	79.995	19.997	100.127	19.980	15.143	0.539
563.000	359.440	79.996	19.996	100.123	19.985	14.729	0.498
563.500	359.688	79.994	19.996	100.121	19.984	14.817	0.502
564.000	359.912	79.995	19.996	100.120	19.990	14.434	0.496
564.500	360.215	79.995	19.996	100.120	19.989	14.507	0.500
565.000	360.471	79.995	19.995	100.119	19.994	14.163	0.543
565.500	360.742	79.995	19.996	100.124	19.993	14.219	0.543
566.000	360.976	79.994	19.996	100.126	19.996	14.016	0.516
566.500	361.255	79.995	19.996	100.125	19.994	14.143	0.509
567.000	361.489	79.994	19.996	100.126	19.994	14.099	0.513
567.500	361.773	79.996	19.996	100.122	19.999	13.772	0.515
568.000	362.019	79.995	19.997	100.117	20.001	13.652	0.524
568.500	362.299	79.995	19.996	100.113	20.003	13.468	0.528
569.000	362.538	79.996	19.995	100.113	20.005	13.379	0.522
569.500	362.819	79.996	19.996	100.111	20.004	13.408	0.519
570.000	363.027	79.996	19.995	100.115	20.006	13.270	0.505
570.500	363.300	79.996	19.996	100.121	20.005	13.375	0.485
571.000	363.578	79.997	19.996	100.125	20.005	13.384	0.516
571.500	363.855	79.995	19.996	100.127	20.003	13.486	0.553
572.000	364.121	79.996	19.996	100.129	20.005	13.336	0.549
572.500	364.350	79.996	19.997	100.127	20.006	13.313	0.519
573.000	364.620	79.995	19.995	100.124	20.006	13.316	0.497
573.500	364.859	79.994	19.997	100.120	20.012	12.847	0.504
574.000	365.144	79.995	19.996	100.115	20.010	13.017	0.516
574.500	365.367	79.997	19.996	100.113	20.011	12.974	0.516
575.000	365.618	79.995	19.996	100.114	20.013	12.818	0.491
575.500	365.884	79.995	19.996	100.117	20.016	12.619	0.495
576.000	366.159	79.996	19.996	100.118	20.016	12.562	0.529
576.500	366.426	79.996	19.997	100.120	20.012	12.870	0.541
577.000	366.642	79.995	19.996	100.120	20.017	12.550	0.513
577.500	366.917	79.995	19.997	100.116	20.015	12.667	0.487
578.000	367.173	79.995	19.995	100.113	20.016	12.562	0.511
578.500	367.455	79.994	19.996	100.114	20.013	12.770	0.534
579.000	367.686	79.995	19.996	100.118	20.018	12.472	0.526
579.500	367.946	79.995	19.996	100.119	20.019	12.351	0.502
580.000	368.230	79.996	19.996	100.123	20.021	12.240	0.518
580.500	368.448	79.994	19.997	100.126	20.019	12.393	0.523
581.000	368.717	79.996	19.996	100.126	20.023	12.081	0.494
581.500	368.949	79.995	19.997	100.122	20.023	12.069	0.494
582.000	369.197	79.994	19.996	100.120	20.024	11.999	0.491
582.500	369.496	79.994	19.997	100.122	20.026	11.894	0.514
583.000	369.723	79.995	19.996	100.120	20.025	11.975	0.536
583.500	370.006	79.995	19.996	100.119	20.024	12.002	0.518
584.000	370.252	79.994	19.997	100.116	20.027	11.828	0.519
584.500	370.476	79.995	19.997	100.115	20.024	12.063	0.499
585.000	370.711	79.993	19.997	100.114	20.026	11.902	0.465
585.500	370.958	79.994	19.996	100.115	20.026	11.885	0.471
586.000	371.213	79.994	19.997	100.113	20.024	12.048	0.492
586.500	371.501	79.993	19.998	100.114	20.029	11.689	0.522
587.000	371.759	79.994	19.997	100.115	20.025	11.988	0.545
587.500	372.005	79.994	19.998	100.113	20.027	11.833	0.525
588.000	372.268	79.994	19.997	100.112	20.030	11.640	0.507
588.500	372.540	79.994	19.996	100.111	20.026	11.875	0.522
589.000	372.780	79.994	19.997	100.113	20.029	11.662	0.523
589.500	373.083	79.995	19.997	100.114	20.032	11.469	0.528
590.000	373.297	79.993	19.996	100.113	20.032	11.446	0.530
590.500	373.572	79.993	19.997	100.114	20.033	11.430	0.503
591.000	373.827	79.992	19.997	100.115	20.029	11.715	0.510
591.500	374.068	79.994	19.997	100.112	20.030	11.616	0.513
592.000	374.328	79.994	19.996	100.110	20.032	11.449	0.499
592.500	374.574	79.993	19.996	100.111	20.030	11.629	0.503
593.000	374.850	79.993	19.997	100.112	20.033	11.399	0.514
593.500	375.083	79.993	19.996	100.113	20.031	11.564	0.516
594.000	375.339	79.994	19.997	100.118	20.032	11.453	0.499
594.500	375.612	79.995	19.996	100.121	20.034	11.355	0.509
595.000	375.878	79.995	19.996	100.123	20.033	11.408	0.533
595.500	376.146	79.996	19.996	100.121	20.032	11.464	0.537
596.000	376.375	79.997	19.996	100.121	20.033	11.414	0.516
596.500	376.644	79.996	19.996	100.121	20.034	11.328	0.497
597.000	376.897	79.995	19.995	100.121	20.034	11.321	0.510
597.500	377.183	79.996	19.996	100.118	20.030	11.595	0.530
598.000	377.399	79.996	19.996	100.117	20.032	11.446	0.521
598.500	377.647	79.995	19.995	100.117	20.037	11.145	0.483
599.000	377.895	79.996	19.995	100.117	20.033	11.406	0.480
599.500	378.129	79.996	19.996	100.114	20.034	11.354	0.489
600.000	378.394	79.997	19.995	100.116	20.035	11.296	0.490
600.500	378.686	79.999	19.996	100.117	20.036	11.172	0.528
601.000	378.944	79.998	19.995	100.120	20.035	11.293	0.553
601.500	379.149	79.998	19.995	100.123	20.038	11.066	0.507
602.000	379.452	79.997	19.995	100.127	20.036	11.162	0.486
602.500	379.697	79.996	19.995	100.130	20.034	11.320	0.528
603.000	379.921	79.997	19.996	100.130	20.032	11.443	0.509
603.500	380.183	79.998	19.996	100.127	20.035	11.288	0.478
604.000	380.428	79.996	19.995	100.120	20.034	11.334	0.496
604.500	380.716	79.997	19.996	100.113	20.036	11.193	0.520
605.000	380.949	79.997	19.995	100.107	20.036	11.180	0.527
605.501	381.173	79.996	19.996	100.106	20.039	10.985	0.489
606.001	381.432	79.998	19.996	100.103	20.039	10.968	0.470
606.500	381.711	79.997	19.995	100.103	20.037	11.103	0.511
607.000	381.949	79.996	19.996	100.104	20.038	11.069	0.528
607.500	382.204	79.996	19.995	100.107	20.036	11.168	0.505
608.000	382.435	79.997	19.995	100.107	20.036	11.180	0.489
608.500	382.683	79.996	19.995	100.110	20.036	11.170	0.482
609.000	382.943	79.997	19.995	100.112	20.035	11.238	0.494
609.500	383.203	79.994	19.995	100.112	20.037	11.133	0.514
610.000	383.425	79.995	19.995	100.115	20.037	11.121	0.501
610.500	383.693	79.994	19.995	100.114	20.037	11.119	0.486
611.000	383.920	79.994	19.995	100.113	20.036	11.192	0.492
611.500	384.169	79.995	19.995	100.115	20.038	11.029	0.486
612.000	384.441	79.996	19.995	100.115	20.040	10.925	0.499
612.501	384.685	79.996	19.996	100.111	20.039	11.011	0.518
613.001	384.938	79.994	19.994	100.109	20.040	10.942	0.506
613.500	385.169	79.995	19.995	100.106	20.038	11.024	0.491
614.000	385.430	79.995	19.994	100.108	20.036	11.170	0.488
614.500	385.665	79.994	19.996	100.110	20.038	11.030	0.494
615.000	385.935	79.993	19.991	100.109	20.041	10.845	0.501
615.500	386.194	79.992	19.996	100.114	20.040	10.947	0.517
616.000	386.374	79.996	19.998	100.119	20.040	10.885	0.484
616.500	386.636	80.012	19.999	100.121	20.042	10.802	0.440
617.000	386.893	80.011	20.000	100.126	20.043	10.690	0.480
617.500	387.149	80.013	20.002	100.131	20.043	10.739	0.516
618.000	387.393	80.015	20.003	100.136	20.048	10.384	0.506
618.500	387.662	80.013	20.002	100.142	20.046	10.512	0.506
619.000	387.895	80.013	20.002	100.147	20.050	10.217	0.508
619.500	388.141	80.012	20.003	100.149	20.047	10.407	0.491
620.000	388.416	80.013	20.003	100.154	20.049	10.285	0.500
620.500	388.650	80.012	20.004	100.159	20.048	10.366	0.515
621.000	388.913	80.015	20.008	100.157	20.049	10.287	0.503
621.500	389.139	80.018	20.008	100.154	20.049	10.262	0.493
622.000	389.413	80.020	20.008	100.158	20.049	10.283	0.495
622.500	389.615	80.024	20.008	100.157	20.050	10.226	0.488
623.000	389.895	80.019	20.007	100.153	20.050	10.212	0.479
623.500	390.107	80.034	20.007	100.150	20.051	10.144	0.487
624.000	390.323	80.036	20.011	100.148	20.051	10.159	0.460
624.500	390.585	80.033	20.008	100.146	20.053	9.985	0.453
625.000	390.878	80.023	20.007	100.144	20.051	10.118	0.517
625.500	391.130	80.016	20.006	100.141	20.049	10.275	0.551
626.000	391.353	80.018	20.004	100.138	20.052	10.111	0.510
626.500	391.593	80.019	20.004	100.137	20.051	10.120	0.469
627.000	391.859	80.019	20.004	100.132	20.049	10.275	0.485
627.500	392.089	80.019	20.001	100.124	20.051	10.157	0.501
628.000	392.314	80.012	20.000	100.116	20.050	10.247	0.475
628.500	392.546	80.003	19.997	100.108	20.050	10.197	0.456
629.000	392.797	79.999	19.995	100.102	20.050	10.230	0.470
629.500	393.076	79.999	19.995	100.101	20.050	10.245	0.506
630.000	393.325	79.998	19.995	100.102	20.050	10.204	0.529
630.500	393.577	79.997	19.994	100.101	20.048	10.383	0.515
631.000	393.835	79.997	19.995	100.105	20.050	10.217	0.506
631.500	394.102	79.996	19.996	100.110	20.051	10.165	0.518
632.000	394.344	79.997	19.995	100.112	20.052	10.087	0.517
632.500	394.639	79.997	19.996	100.110	20.051	10.179	0.523
633.000	394.863	79.997	19.995	100.111	20.048	10.363	0.527
633.500	395.079	79.997	19.995	100.107	20.051	10.131	0.479
634.000	395.370	79.996	19.994	100.100	20.052	10.049	0.474
634.500	395.608	79.995	19.995	100.092	20.053	9.985	0.518
635.000	395.857	79.996	19.995	100.094	20.052	10.085	0.508
635.500	396.104	79.996	19.994	100.096	20.054	9.942	0.491
636.000	396.343	79.995	19.995	100.101	20.055	9.840	0.491
636.500	396.602	79.996	19.996	100.103	20.053	9.978	0.492
637.000	396.863	79.995	19.995	100.104	20.052	10.053	0.509
637.500	397.089	79.994	19.995	100.103	20.051	10.150	0.504
638.000	397.332	79.996	19.995	100.106	20.053	10.010	0.479
638.500	397.583	79.995	19.995	100.108	20.055	9.849	0.482
639.000	397.799	79.994	19.996	100.110	20.055	9.846	0.480
639.500	398.048	79.995	19.995	100.112	20.055	9.898	0.465
640.000	398.310	79.996	19.996	100.112	20.058	9.680	0.488
640.500	398.566	79.997	19.996	100.105	20.063	9.314	0.514
641.000	398.822	79.994	19.996	100.100	20.060	9.536	0.515
641.500	399.090	79.995	19.996	100.096	20.058	9.622	0.518
642.000	399.284	79.995	19.995	100.095	20.056	9.790	0.493
642.500	399.593	79.996	19.996	100.095	20.059	9.587	0.483
643.000	399.798	79.995	19.996	100.101	20.055	9.859	0.509
643.500	400.106	79.996	19.996	100.104	20.058	9.644	0.514
644.000	400.307	79.995	19.997	100.104	20.062	9.380	0.511
644.500	400.576	79.996	19.995	100.103	20.058	9.677	0.489
645.000	400.770	79.995	19.996	100.103	20.058	9.622	0.466
645.500	401.076	79.995	19.996	100.098	20.060	9.494	0.482
646.000	401.320	79.995	19.996	100.098	20.061	9.425	0.525
646.500	401.542	79.996	19.996	100.101	20.059	9.553	0.507
647.000	401.741	79.994	19.996	100.101	20.060	9.549	0.443
647.500	402.060	79.995	19.995	100.101	20.064	9.239	0.470
648.000	402.273	79.995	19.996	100.099	20.058	9.625	0.526
648.500	402.542	79.995	19.996	100.095	20.063	9.334	0.507
649.000	402.764	79.996	19.996	100.094	20.058	9.679	0.486
649.500	403.047	79.995	19.996	100.097	20.060	9.543	0.498
650.000	403.262	79.996	19.996	100.099	20.062	9.371	0.502
650.500	403.533	79.995	19.997	100.101	20.061	9.451	0.492
651.000	403.782	79.996	19.996	100.105	20.062	9.371	0.503
651.500	404.033	79.994	19.996	100.102	20.062	9.394	0.510
652.000	404.288	79.994	19.996	100.102	20.064	9.233	0.503
652.500	404.544	79.996	19.996	100.100	20.068	8.969	0.509
653.000	404.763	79.995	19.995	100.098	20.064	9.207	0.493
653.500	405.013	79.994	19.998	100.095	20.064	9.236	0.472
654.000	405.315	79.996	19.995	100.095	20.060	9.535	0.511
654.500	405.525	79.995	19.996	100.092	20.063	9.274	0.532
655.000	405.754	79.996	19.995	100.092	20.064	9.218	0.476
655.500	406.017	79.996	19.996	100.095	20.064	9.233	0.466
656.000	406.338	79.996	19.996	100.099	20.065	9.166	0.538
656.500	406.494	79.995	19.995	100.103	20.066	9.091	0.530
657.000	406.785	79.996	19.995	100.104	20.066	9.086	0.462
657.500	407.075	79.995	19.996	100.104	20.064	9.237	0.513
658.000	407.349	79.994	19.996	100.101	20.064	9.224	0.573
658.500	407.517	79.995	19.994	100.098	20.064	9.272	0.503
659.000	407.774	79.995	19.996	100.094	20.062	9.358	0.434
659.500	408.032	79.995	19.996	100.094	20.062	9.383	0.470
660.000	408.271	79.995	19.996	100.094	20.065	9.138	0.506
660.500	408.505	79.996	19.996	100.095	20.070	8.805	0.485
661.000	408.775	79.996	19.995	100.096	20.069	8.856	0.488
661.500	409.057	79.995	19.996	100.095	20.071	8.737	0.528
662.000	409.262	79.995	19.995	100.095	20.067	8.996	0.520
662.500	409.503	79.995	19.995	100.095	20.066	9.078	0.467
663.000	409.723	79.993	19.996	100.097	20.066	9.082	0.454
663.500	410.029	79.993	19.996	100.098	20.064	9.212	0.493
664.000	410.224	79.994	19.996	100.103	20.065	9.179	0.513
664.500	410.497	79.994	19.995	100.106	20.066	9.070	0.484
665.000	410.762	79.994	19.996	100.106	20.067	9.015	0.503
665.500	411.020	79.994	19.996	100.103	20.066	9.099	0.531
666.000	411.277	79.994	19.996	100.102	20.067	9.010	0.519
666.500	411.501	79.993	19.995	100.098	20.066	9.073	0.498
667.000	411.753	79.994	19.996	100.094	20.066	9.128	0.479
667.500	412.028	79.994	19.996	100.095	20.069	8.885	0.501
668.000	412.237	79.994	19.995	100.095	20.067	9.038	0.506
668.500	412.507	79.993	19.995	100.094	20.065	9.147	0.482
669.000	412.774	79.993	19.995	100.096	20.069	8.911	0.508
669.500	413.023	79.994	19.997	100.101	20.067	9.024	0.526
670.000	413.268	79.995	19.996	100.104	20.065	9.147	0.504
670.500	413.519	79.994	19.996	100.104	20.067	9.053	0.495
671.000	413.800	79.993	19.996	100.105	20.068	8.980	0.514
671.500	414.017	79.994	19.997	100.103	20.067	9.024	0.515
672.000	414.228	79.994	19.996	100.098	20.069	8.898	0.463
672.500	414.469	79.994	19.997	100.096	20.070	8.850	0.440
673.000	414.708	79.994	19.996	100.096	20.068	8.930	0.466
673.500	414.958	79.994	19.997	100.097	20.069	8.877	0.485
674.000	415.273	79.995	19.996	100.095	20.071	8.718	0.527
674.500	415.511	79.995	19.996	100.097	20.073	8.580	0.559
675.000	415.784	79.994	19.997	100.096	20.072	8.658	0.532
675.500	415.950	79.993	19.996	100.096	20.069	8.856	0.475
676.000	416.259	79.994	19.997	100.096	20.071	8.746	0.457
676.500	416.538	79.995	19.996	100.100	20.073	8.630	0.531
677.000	416.706	79.994	19.997	100.100	20.075	8.499	0.517
677.500	416.936	79.995	19.996	100.101	20.073	8.585	0.422
678.000	417.208	79.995	19.996	100.101	20.073	8.624	0.450
678.500	417.487	79.995	19.995	100.099	20.073	8.587	0.527
679.001	417.769	79.994	19.997	100.096	20.073	8.595	0.556
679.501	418.039	79.995	19.996	100.094	20.074	8.551	0.556
680.000	418.224	79.995	19.996	100.093	20.075	8.469	0.504
680.500	418.488	79.995	19.995	100.093	20.073	8.603	0.452
681.000	418.750	79.996	19.996	100.093	20.073	8.616	0.488
681.500	418.995	79.996	19.995	100.093	20.074	8.513	0.516
682.000	419.233	79.995	19.996	100.093	20.081	8.080	0.495
682.500	419.493	79.996	19.996	100.093	20.076	8.431	0.490
683.000	419.732	79.996	19.996	100.093	20.075	8.499	0.498
683.500	419.983	79.996	19.995	100.093	20.077	8.302	0.495
684.000	420.238	79.996	19.995	100.093	20.076	8.367	0.498
684.500	420.480	79.995	19.995	100.092	20.079	8.203	0.501
685.000	420.756	79.996	19.996	100.093	20.078	8.274	0.507
685.500	421.040	79.997	19.996	100.092	20.079	8.222	0.540
686.000	421.273	79.995	19.995	100.091	20.078	8.279	0.539
686.500	421.524	79.995	19.995	100.091	20.078	8.276	0.500
687.000	421.760	79.996	19.996	100.090	20.079	8.191	0.485
687.500	422.029	79.996	19.995	100.089	20.081	8.040	0.496
688.000	422.250	79.994	19.995	100.088	20.082	7.969	0.498
688.500	422.526	79.996	19.996	100.088	20.076	8.368	0.493
689.000	422.761	79.995	19.995	100.088	20.081	8.044	0.504
689.500	422.997	79.997	19.996	100.088	20.085	7.768	0.491
690.000	423.263	79.995	19.996	100.088	20.081	8.061	0.487
690.500	423.517	79.996	19.996	100.089	20.082	7.983	0.511
691.000	423.761	79.994	19.996	100.089	20.082	8.000	0.509
691.500	424.024	79.996	19.996	100.089	20.084	7.841	0.503
692.000	424.268	79.996	19.996	100.089	20.086	7.726	0.507
692.500	424.528	79.996	19.995	100.089	20.087	7.659	0.506
693.000	424.766	79.995	19.996	100.090	20.085	7.770	0.501
693.500	425.064	79.996	19.996	100.090	20.088	7.531	0.517
694.000	425.281	79.996	19.995	100.090	20.085	7.776	0.525
694.500	425.515	79.995	19.995	100.091	20.085	7.797	0.483
695.000	425.780	79.996	19.996	100.089	20.082	7.982	0.475
695.500	426.048	79.998	19.995	100.089	20.089	7.519	0.516
696.000	426.292	79.997	19.995	100.089	20.086	7.669	0.523
696.500	426.548	79.996	19.996	100.089	20.085	7.772	0.506
697.000	426.797	79.996	19.995	100.089	20.094	7.160	0.502
697.500	427.055	79.998	19.995	100.091	20.088	7.556	0.506
698.000	427.324	79.997	19.995	100.092	20.088	7.525	0.517
698.500	427.558	79.997	19.995	100.092	20.090	7.395	0.515
699.000	427.828	79.997	19.995	100.091	20.089	7.458	0.504
699.500	428.066	79.997	19.995	100.091	20.089	7.485	0.506
700.000	428.303	79.996	19.995	100.091	20.093	7.223	0.491
700.500	428.576	79.997	19.995	100.090	20.091	7.351	0.493
701.000	428.820	79.998	19.995	100.089	20.088	7.592	0.514
701.500	429.113	79.998	19.995	100.089	20.094	7.108	0.527
702.000	429.392	79.999	19.997	100.089	20.096	6.968	0.554
702.500	429.616	79.997	19.995	100.089	20.088	7.544	0.537
703.000	429.853	79.997	19.996	100.088	20.090	7.420	0.482
703.500	430.105	79.998	19.993	100.088	20.093	7.223	0.475
704.000	430.355	79.997	19.995	100.086	20.096	6.972	0.495
704.500	430.660	79.998	19.995	100.085	20.094	7.175	0.528
705.000	430.895	79.998	19.995	100.085	20.096	7.024	0.548
705.500	431.142	79.998	19.994	100.084	20.094	7.165	0.511
706.000	431.396	79.998	19.996	100.085	20.092	7.273	0.492
706.500	431.709	79.998	19.994	100.087	20.091	7.322	0.534
707.000	431.876	79.998	19.995	100.087	20.096	7.028	0.523
707.500	432.140	79.998	19.995	100.087	20.100	6.735	0.455
708.000	432.419	79.998	19.995	100.087	20.096	6.970	0.486
708.500	432.649	79.997	19.995	100.087	20.096	7.006	0.526
709.000	432.900	79.998	19.995	100.087	20.096	7.014	0.495
709.500	433.298	79.998	19.995	100.086	20.097	6.913	0.565
710.000	433.489	79.994	19.995	100.087	20.099	6.758	0.619
710.500	433.690	79.996	19.993	100.088	20.097	6.951	0.491
711.000	433.948	79.995	19.995	100.089	20.096	6.980	0.426
711.500	434.199	79.994	19.994	100.090	20.098	6.842	0.484
712.000	434.484	79.996	19.995	100.088	20.095	7.054	0.522
712.500	434.707	79.994	19.995	100.088	20.099	6.802	0.522
713.000	434.989	79.993	19.994	100.088	20.099	6.817	0.507
713.500	435.278	79.994	19.995	100.088	20.097	6.925	0.538
714.000	435.524	79.997	19.994	100.087	20.098	6.831	0.553
714.500	435.742	79.994	19.995	100.089	20.098	6.860	0.499
715.000	436.047	79.994	19.995	100.089	20.098	6.865	0.494
715.500	436.285	79.994	19.994	100.089	20.100	6.752	0.533
716.000	436.522	79.994	19.996	100.088	20.098	6.841	0.509
716.500	436.857	79.994	19.996	100.088	20.099	6.763	0.524
717.000	437.048	79.994	19.995	100.089	20.098	6.862	0.549
717.500	437.342	79.993	19.995	100.090	20.101	6.631	0.506
718.000	437.591	79.995	19.994	100.088	20.099	6.809	0.514
718.500	437.880	79.996	19.995	100.088	20.099	6.771	0.541
719.000	438.101	79.996	19.996	100.088	20.100	6.710	0.524
719.500	438.334	79.995	19.996	100.087	20.100	6.706	0.482
720.000	438.609	79.995	19.995	100.087	20.102	6.547	0.480
720.500	438.823	79.995	19.995	100.090	20.101	6.618	0.498
721.000	439.107	79.995	19.995	100.092	20.105	6.385	0.494
721.500	439.389	79.996	19.995	100.092	20.103	6.540	0.532
722.000	439.632	79.994	19.994	100.088	20.102	6.557	0.545
722.500	439.908	79.995	19.995	100.088	20.103	6.526	0.522
723.000	440.158	79.996	19.996	100.088	20.102	6.599	0.523
723.500	440.408	79.994	19.995	100.089	20.099	6.765	0.513
724.000	440.692	79.994	19.995	100.089	20.104	6.418	0.517
724.500	440.928	79.996	19.995	100.094	20.102	6.600	0.527
725.000	441.176	79.995	19.995	100.094	20.101	6.656	0.502
725.500	441.414	79.996	19.996	100.093	20.102	6.612	0.485
726.000	441.674	79.994	19.995	100.089	20.105	6.378	0.492
726.500	441.965	79.995	19.995	100.083	20.105	6.394	0.525
727.000	442.200	79.996	19.995	100.080	20.103	6.484	0.539
727.500	442.434	79.995	19.996	100.079	20.104	6.471	0.498
728.000	442.676	79.994	19.996	100.079	20.101	6.629	0.473
728.500	442.947	79.996	19.996	100.080	20.103	6.516	0.494
729.000	443.178	79.996	19.996	100.086	20.103	6.489	0.507
729.500	443.452	79.995	19.994	100.088	20.103	6.533	0.504
730.000	443.714	79.995	19.995	100.087	20.104	6.472	0.520
730.500	443.963	79.994	19.996	100.087	20.104	6.447	0.523
731.000	444.234	79.994	19.995	100.090	20.104	6.449	0.516
731.500	444.487	79.995	19.995	100.091	20.106	6.312	0.522
732.000	444.729	79.995	19.996	100.091	20.110	6.007	0.510
732.500	444.950	79.995	19.996	100.092	20.109	6.110	0.479
733.000	445.232	79.995	19.996	100.091	20.108	6.168	0.483
733.500	445.472	79.996	19.996	100.088	20.109	6.120	0.512
734.000	445.749	79.995	19.995	100.084	20.106	6.321	0.519
734.500	446.033	79.996	19.995	100.080	20.107	6.252	0.539
735.000	446.262	79.994	19.996	100.078	20.108	6.166	0.538
735.500	446.469	79.995	19.996	100.078	20.110	6.030	0.474
736.000	446.768	79.996	19.996	100.077	20.108	6.135	0.471
736.500	447.009	79.994	19.995	100.079	20.109	6.095	0.523
737.000	447.260	79.994	19.996	100.083	20.109	6.081	0.516
737.500	447.509	79.994	19.995	100.085	20.112	5.890	0.496
738.000	447.740	79.994	19.996	100.086	20.109	6.097	0.490
738.500	447.993	79.994	19.996	100.086	20.113	5.806	0.482
739.000	448.248	79.995	19.995	100.082	20.112	5.850	0.496
739.500	448.504	79.994	19.995	100.077	20.111	5.921	0.509
740.000	448.794	79.994	19.995	100.075	20.112	5.896	0.528
740.500	448.983	79.995	19.996	100.076	20.110	6.047	0.513
741.000	449.271	79.994	19.997	100.080	20.116	5.634	0.478
741.500	449.513	79.993	19.995	100.081	20.113	5.808	0.503
742.000	449.769	79.992	19.996	100.082	20.112	5.869	0.514
742.500	449.990	79.994	19.995	100.084	20.111	5.934	0.487
743.000	450.273	79.993	19.995	100.080	20.113	5.779	0.490
743.500	450.526	79.992	19.995	100.079	20.113	5.838	0.520
744.000	450.781	79.993	19.996	100.083	20.112	5.884	0.522
744.500	451.072	79.993	19.995	100.086	20.117	5.510	0.527
745.001	451.314	79.993	19.996	100.083	20.116	5.578	0.540
745.501	451.551	79.993	19.995	100.084	20.116	5.580	0.506
746.000	451.818	79.993	19.994	100.085	20.115	5.639	0.492
746.500	452.050	79.993	19.996	100.084	20.117	5.519	0.501
747.000	452.335	79.994	19.997	100.082	20.114	5.775	0.507
747.500	452.572	79.992	19.996	100.079	20.112	5.867	0.519
748.000	452.803	79.994	19.995	100.076	20.117	5.567	0.495
748.500	453.068	79.994	19.996	100.074	20.116	5.572	0.482
749.000	453.305	79.993	19.995	100.073	20.116	5.635	0.499
749.500	453.570	79.994	19.996	100.074	20.116	5.576	0.502
750.000	453.802	79.994	19.996	100.075	20.118	5.436	0.500
750.500	454.039	79.993	19.995	100.076	20.119	5.370	0.483
751.000	454.310	79.995	19.996	100.074	20.114	5.718	0.488
751.500	454.548	79.994	19.997	100.074	20.118	5.454	0.508
752.000	454.844	79.994	19.995	100.074	20.116	5.571	0.522
752.500	455.096	79.995	19.996	100.073	20.117	5.550	0.541
753.000	455.366	79.996	19.995	100.070	20.117	5.517	0.535
753.500	455.633	79.996	19.997	100.071	20.121	5.236	0.530
754.000	455.866	79.997	19.995	100.071	20.120	5.358	0.519
754.500	456.095	79.996	19.996	100.072	20.120	5.337	0.482
755.000	456.387	79.995	19.995	100.077	20.119	5.421	0.492
755.500	456.597	79.996	19.996	100.081	20.121	5.225	0.511
756.000	456.851	79.996	19.995	100.079	20.119	5.424	0.483
756.500	457.102	79.995	19.996	100.077	20.120	5.355	0.484
757.000	457.352	79.996	19.997	100.076	20.124	5.028	0.503
757.500	457.626	79.995	19.996	100.076	20.122	5.177	0.512
758.000	457.885	79.996	19.996	100.076	20.119	5.363	0.528
758.500	458.124	79.996	19.995	100.079	20.120	5.289	0.516
759.000	458.365	79.998	19.995	100.077	20.122	5.201	0.489
759.500	458.635	79.996	19.996	100.075	20.121	5.228	0.496
760.000	458.910	79.996	19.998	100.075	20.125	4.992	0.528
760.500	459.148	79.998	19.997	100.074	20.124	5.051	0.529
761.000	459.408	79.996	19.997	100.073	20.126	4.912	0.505
761.500	459.655	79.995	19.997	100.076	20.124	5.055	0.502
762.000	459.894	79.997	19.997	100.078	20.122	5.187	0.497
762.500	460.180	79.995	19.997	100.080	20.125	5.008	0.505
763.000	460.407	79.995	19.995	100.082	20.126	4.876	0.519
763.500	460.644	79.996	19.995	100.085	20.127	4.819	0.488
764.000	460.923	79.995	19.997	100.083	20.123	5.110	0.490
764.500	461.169	79.995	19.997	100.078	20.124	5.054	0.521
765.000	461.399	79.995	19.996	100.073	20.124	5.075	0.501
765.500	461.674	79.994	19.996	100.069	20.124	5.015	0.490
766.000	461.941	79.996	19.996	100.063	20.125	4.986	0.523
766.500	462.142	79.995	19.996	100.058	20.125	5.002	0.505
767.000	462.401	79.993	19.997	100.060	20.125	4.979	0.464
767.500	462.685	79.995	19.997	100.062	20.125	4.952	0.502
768.000	462.905	79.995	19.996	100.060	20.124	5.032	0.523
768.500	463.167	79.995	19.996	100.061	20.126	4.923	0.493
769.000	463.422	79.994	19.996	100.062	20.127	4.810	0.500
769.500	463.665	79.995	19.997	100.064	20.127	4.849	0.508
770.000	463.935	79.995	19.995	100.067	20.127	4.821	0.505
770.500	464.184	79.996	19.997	100.069	20.126	4.904	0.516
771.000	464.436	79.996	19.995	100.068	20.127	4.863	0.510
771.500	464.689	79.996	19.994	100.067	20.127	4.864	0.503
772.000	464.888	79.995	19.996	100.064	20.129	4.667	0.478
772.500	465.146	79.996	19.996	100.061	20.129	4.672	0.455
773.000	465.416	79.996	19.995	100.064	20.131	4.577	0.493
773.500	465.683	79.996	19.993	100.071	20.127	4.866	0.533
774.000	465.921	79.996	19.996	100.078	20.129	4.713	0.521
774.500	466.137	79.996	19.994	100.082	20.131	4.571	0.479
775.000	466.426	79.995	19.995	100.084	20.132	4.478	0.480
775.500	466.674	79.995	19.994	100.079	20.131	4.564	0.521
776.001	466.886	79.996	19.995	100.075	20.130	4.660	0.498
776.500	467.157	79.996	19.993	100.071	20.131	4.547	0.471
777.000	467.414	79.995	19.997	100.066	20.131	4.535	0.505
777.500	467.690	79.995	19.994	100.068	20.129	4.663	0.530
778.000	467.939	79.995	19.997	100.067	20.131	4.561	0.529
778.500	468.156	79.996	19.996	100.071	20.131	4.527	0.496
779.000	468.388	79.998	19.994	100.070	20.129	4.674	0.458
779.500	468.693	79.997	19.995	100.070	20.130	4.604	0.493
780.000	468.915	79.996	19.995	100.065	20.128	4.734	0.531
780.500	469.147	79.996	19.994	100.065	20.131	4.568	0.491
781.000	469.412	79.997	19.997	100.059	20.129	4.669	0.476
781.500	469.673	79.996	19.993	100.057	20.130	4.649	0.512
782.000	469.916	79.996	19.996	100.056	20.131	4.534	0.515
782.500	470.182	79.996	19.994	100.060	20.133	4.388	0.506
783.000	470.401	79.995	19.995	100.061	20.133	4.447	0.497
783.500	470.683	79.998	19.993	100.061	20.134	4.365	0.493
784.000	470.932	79.997	19.996	100.062	20.132	4.481	0.516
784.500	471.178	79.996	19.994	100.065	20.132	4.451	0.513
785.000	471.430	79.997	19.995	100.066	20.133	4.403	0.496
785.500	471.683	79.997	19.995	100.068	20.136	4.210	0.501
786.000	471.941	79.998	19.994	100.071	20.134	4.355	0.508
786.500	472.192	79.997	19.996	100.076	20.132	4.487	0.510
787.001	472.448	79.996	19.995	100.077	20.136	4.212	0.509
787.501	472.718	79.996	19.993	100.073	20.135	4.301	0.516
788.000	472.927	79.996	19.994	100.069	20.136	4.171	0.502
788.500	473.234	79.997	19.996	100.068	20.137	4.147	0.497
789.000	473.471	79.996	19.997	100.061	20.137	4.104	0.529
789.500	473.727	79.994	19.996	100.057	20.136	4.204	0.518
790.000	474.016	79.996	19.994	100.056	20.139	3.976	0.519
790.500	474.252	79.995	19.996	100.063	20.138	4.066	0.535
791.000	474.515	79.997	19.994	100.068	20.136	4.207	0.512
791.500	474.733	79.996	19.994	100.075	20.137	4.138	0.490
792.000	475.014	79.995	19.993	100.081	20.137	4.169	0.490
792.500	475.248	79.994	19.994	100.087	20.136	4.227	0.507
793.000	475.514	79.994	19.995	100.081	20.135	4.279	0.508
793.500	475.731	79.996	19.996	100.074	20.136	4.202	0.492
794.000	476.010	79.994	19.995	100.075	20.140	3.957	0.490
794.500	476.264	79.995	19.997	100.076	20.137	4.166	0.515
795.000	476.520	79.994	19.996	100.072	20.138	4.064	0.522
795.500	476.798	79.995	19.995	100.073	20.137	4.143	0.522
796.000	477.019	79.995	19.996	100.078	20.139	4.030	0.516
796.500	477.275	79.995	19.994	100.073	20.138	4.066	0.487
797.000	477.556	79.995	19.995	100.068	20.137	4.166	0.507
797.500	477.821	79.994	19.996	100.069	20.138	4.097	0.542
798.000	478.091	79.993	19.995	100.072	20.139	4.028	0.541
798.500	478.322	79.994	19.997	100.069	20.139	3.988	0.518
799.000	478.612	79.995	19.995	100.071	20.138	4.091	0.511
799.500	478.844	79.995	19.995	100.074	20.138	4.066	0.521
800.000	479.088	79.994	19.993	100.071	20.141	3.825	0.499
800.500	479.319	79.996	19.994	100.066	20.140	3.945	0.476
801.000	479.573	79.994	19.995	100.064	20.140	3.905	0.481
801.500	479.881	79.993	19.994	100.062	20.139	3.991	0.523
802.000	480.110	79.994	19.994	100.058	20.138	4.073	0.549
802.500	480.381	79.995	19.996	100.057	20.143	3.721	0.519
803.000	480.661	79.993	19.997	100.059	20.139	3.964	0.526
803.500	480.859	79.994	19.995	100.066	20.138	4.041	0.515
804.000	481.143	79.993	19.994	100.071	20.142	3.779	0.480
804.500	481.399	79.993	19.995	100.073	20.141	3.873	0.511
805.000	481.670	79.994	19.995	100.080	20.142	3.769	0.533
805.500	481.931	79.994	19.996	100.079	20.143	3.744	0.530
806.000	482.147	79.995	19.994	100.072	20.138	4.079	0.505
806.500	482.413	79.995	19.996	100.070	20.140	3.898	0.479
807.000	482.653	79.995	19.993	100.070	20.138	4.043	0.494
807.500	482.906	79.994	19.996	100.068	20.140	3.938	0.500
808.000	483.178	79.994	19.992	100.071	20.141	3.875	0.509
808.500	483.422	79.995	19.995	100.073	20.141	3.842	0.520
809.000	483.681	79.995	19.996	100.072	20.142	3.812	0.510
809.500	483.941	79.996	19.995	100.070	20.140	3.894	0.511
810.000	484.179	79.995	19.996	100.067	20.144	3.668	0.509
810.500	484.433	79.995	19.997	100.062	20.141	3.852	0.495
811.000	484.683	79.995	19.995	100.061	20.145	3.578	0.498
811.500	484.924	79.995	19.995	100.061	20.143	3.712	0.497
812.000	485.188	79.995	19.996	100.060	20.145	3.582	0.498
812.500	485.489	79.994	19.995	100.059	20.145	3.599	0.535
813.000	485.720	79.994	19.995	100.057	20.144	3.666	0.548
813.500	486.005	79.995	19.995	100.058	20.144	3.647	0.524
814.000	486.214	79.996	19.996	100.058	20.145	3.570	0.505
814.500	486.511	79.995	19.996	100.060	20.144	3.624	0.500
815.000	486.760	79.995	19.995	100.064	20.145	3.587	0.526
815.500	487.040	79.995	19.995	100.067	20.145	3.572	0.538
816.000	487.281	79.995	19.995	100.067	20.145	3.545	0.525
816.500	487.548	79.995	19.994	100.064	20.146	3.520	0.514
817.000	487.833	79.995	19.995	100.064	20.147	3.411	0.530
817.500	488.068	79.996	19.996	100.063	20.143	3.712	0.536
818.000	488.297	79.994	19.995	100.066	20.142	3.784	0.492
818.500	488.570	79.996	19.995	100.068	20.143	3.719	0.483
819.000	488.838	79.994	19.997	100.073	20.144	3.635	0.521
819.500	489.080	79.995	19.995	100.074	20.144	3.628	0.525
820.000	489.350	79.995	19.995	100.071	20.147	3.423	0.511
820.500	489.599	79.993	19.994	100.065	20.142	3.777	0.515
821.000	489.854	79.995	19.996	100.063	20.144	3.639	0.511
821.500	490.151	79.996	19.996	100.063	20.145	3.589	0.528
822.000	490.356	79.994	19.997	100.064	20.146	3.486	0.527
822.500	490.651	79.995	19.997	100.066	20.145	3.578	0.501
823.000	490.923	79.994	19.995	100.067	20.146	3.486	0.533
823.500	491.139	79.994	19.997	100.066	20.147	3.421	0.527
824.000	491.383	79.994	19.995	100.063	20.147	3.434	0.474
824.500	491.674	79.996	19.997	100.058	20.147	3.455	0.498
825.000	491.959	79.995	19.996	100.055	20.146	3.514	0.556
825.500	492.214	79.994	19.997	100.054	20.147	3.469	0.558
826.000	492.469	79.993	19.995	100.054	20.146	3.537	0.525
826.500	492.673	79.994	19.995	100.054	20.145	3.608	0.484
827.000	492.977	79.995	19.997	100.055	20.145	3.557	0.483
827.500	493.241	79.994	19.998	100.056	20.146	3.482	0.538
828.000	493.507	79.994	19.996	100.058	20.148	3.371	0.549
828.500	493.772	79.994	19.996	100.058	20.146	3.511	0.530
829.000	494.006	79.994	19.997	100.059	20.148	3.379	0.515
829.500	494.283	79.995	19.998	100.057	20.144	3.630	0.505
830.000	494.548	79.995	19.998	100.057	20.147	3.436	0.527
830.500	494.799	79.994	19.995	100.059	20.149	3.318	0.529
831.000	495.049	79.994	19.996	100.059	20.148	3.352	0.509
831.500	495.314	79.995	19.996	100.058	20.145	3.574	0.508
832.000	495.577	79.995	19.995	100.059	20.147	3.458	0.522
832.500	495.820	79.995	19.996	100.059	20.148	3.343	0.517
833.000	496.072	79.997	19.996	100.057	20.148	3.379	0.501
833.500	496.342	79.997	19.997	100.056	20.148	3.375	0.508
834.000	496.596	79.996	19.996	100.055	20.149	3.306	0.522
834.500	496.838	79.997	19.996	100.054	20.150	3.260	0.510
835.000	497.085	79.996	19.998	100.053	20.148	3.333	0.493
835.500	497.306	79.997	19.997	100.054	20.150	3.197	0.479
836.000	497.566	79.996	19.994	100.053	20.149	3.279	0.474
836.500	497.884	79.997	19.996	100.052	20.148	3.375	0.529
837.000	498.093	79.997	19.994	100.052	20.151	3.161	0.553
837.500	498.358	79.996	19.996	100.056	20.151	3.144	0.500
838.000	498.604	79.996	19.998	100.059	20.151	3.176	0.492
838.500	498.910	79.998	19.998	100.060	20.148	3.394	0.531
839.000	499.149	79.997	19.995	100.064	20.150	3.233	0.548
839.500	499.440	79.997	19.996	100.065	20.151	3.170	0.537
840.000	499.638	79.995	19.996	100.065	20.152	3.075	0.509
840.500	499.922	79.997	19.996	100.061	20.150	3.220	0.486
841.000	500.141	79.995	19.997	100.065	20.150	3.222	0.493
841.500	500.402	79.996	19.996	100.065	20.153	3.014	0.491
842.000	500.687	79.997	19.995	100.066	20.152	3.083	0.513
842.500	500.904	79.995	19.995	100.067	20.148	3.375	0.524
843.000	501.193	79.995	19.997	100.070	20.152	3.062	0.504
843.500	501.431	79.995	19.996	100.065	20.152	3.105	0.517
844.000	501.679	79.994	19.996	100.061	20.153	3.052	0.506
844.500	501.939	79.995	19.998	100.060	20.150	3.229	0.497
845.000	502.167	79.996	19.996	100.055	20.152	3.055	0.498
845.500	502.451	79.995	19.997	100.052	20.150	3.229	0.500
846.000	502.713	79.995	19.995	100.056	20.153	3.007	0.529
846.500	502.960	79.995	19.997	100.060	20.154	2.942	0.528
847.000	503.234	79.995	19.996	100.063	20.152	3.078	0.515
847.500	503.478	79.995	19.996	100.067	20.152	3.069	0.519
848.000	503.735	79.994	19.996	100.068	20.152	3.096	0.510
848.500	503.993	79.995	19.996	100.065	20.151	3.132	0.509
849.001	504.261	79.995	19.996	100.062	20.153	3.025	0.521
849.502	504.494	79.995	19.998	100.057	20.151	3.140	0.514
850.001	504.778	79.994	19.996	100.057	20.150	3.226	0.509
850.500	504.981	79.995	19.996	100.059	20.152	3.119	0.502
851.000	505.287	79.996	19.996	100.058	20.152	3.082	0.498
851.500	505.517	79.996	19.995	100.058	20.150	3.205	0.522
852.000	505.796	79.994	19.998	100.065	20.152	3.101	0.522
852.500	506.029	79.994	19.996	100.068	20.153	3.038	0.510
853.000	506.289	79.995	19.995	100.068	20.148	3.337	0.503
853.500	506.509	79.995	19.996	100.068	20.153	3.050	0.487
854.000	506.771	79.996	19.997	100.068	20.153	3.012	0.481
854.500	507.071	79.996	19.998	100.064	20.153	3.021	0.522
855.000	507.346	79.995	19.996	100.057	20.153	3.017	0.568
855.500	507.571	79.994	19.997	100.054	20.153	3.002	0.537
856.000	507.828	79.997	19.995	100.054	20.152	3.090	0.491
856.500	508.084	79.996	19.996	100.053	20.152	3.073	0.497
857.000	508.328	79.996	19.995	100.052	20.152	3.111	0.506
857.500	508.621	79.997	19.995	100.052	20.153	3.038	0.519
858.000	508.868	79.997	19.994	100.055	20.150	3.234	0.539
858.500	509.144	79.997	19.996	100.055	20.153	3.040	0.531
859.000	509.375	79.995	19.997	100.056	20.155	2.897	0.515
859.500	509.631	79.996	19.996	100.056	20.150	3.212	0.497
860.000	509.885	79.997	19.995	100.056	20.152	3.084	0.498
860.500	510.169	79.996	19.995	100.054	20.153	3.019	0.524
861.000	510.402	79.998	19.994	100.055	20.153	2.983	0.528
861.500	510.648	79.998	19.994	100.056	20.157	2.721	0.498
862.000	510.907	79.998	19.996	100.057	20.151	3.126	0.492
862.500	511.162	79.998	19.995	100.057	20.152	3.080	0.510
863.000	511.415	79.998	19.992	100.057	20.150	3.216	0.511
863.500	511.671	79.997	19.994	100.056	20.156	2.828	0.508
864.000	511.885	79.997	19.995	100.058	20.152	3.069	0.489
864.500	512.164	79.997	19.994	100.058	20.155	2.899	0.482
865.000	512.405	79.997	19.995	100.059	20.154	2.945	0.507
865.500	512.623	79.997	19.995	100.061	20.151	3.128	0.489
866.000	512.925	79.997	19.993	100.064	20.155	2.881	0.490
866.500	513.167	79.996	19.996	100.061	20.155	2.898	0.532
867.000	513.417	79.996	19.994	100.060	20.155	2.875	0.518
867.500	513.692	79.996	19.993	100.059	20.153	3.023	0.509
868.000	513.958	79.994	19.994	100.059	20.154	2.935	0.533
868.500	514.253	79.997	19.993	100.059	20.151	3.191	0.551
869.000	514.505	79.995	19.996	100.061	20.154	2.937	0.554
869.500	514.776	79.997	19.994	100.061	20.152	3.100	0.535
870.000	515.020	79.995	19.994	100.061	20.155	2.843	0.519
870.500	515.272	79.994	19.995	100.060	20.155	2.845	0.505
871.001	515.533	79.994	19.994	100.057	20.155	2.891	0.505
871.501	515.799	79.995	19.994	100.055	20.153	3.019	0.521
872.001	516.037	79.996	19.996	100.054	20.154	2.956	0.515
872.500	516.246	79.995	19.995	100.055	20.156	2.830	0.475
873.001	516.533	79.995	19.996	100.057	20.155	2.908	0.471
873.501	516.787	79.993	19.995	100.060	20.156	2.818	0.519
874.000	517.059	79.995	19.995	100.064	20.152	3.063	0.534
874.500	517.303	79.996	19.996	100.065	20.157	2.740	0.521
875.000	517.571	79.994	19.995	100.065	20.154	2.952	0.514
875.500	517.819	79.995	19.995	100.063	20.154	2.960	0.515
876.000	518.021	79.995	19.995	100.058	20.154	2.918	0.483
876.500	518.326	79.995	19.995	100.053	20.153	3.019	0.478
877.000	518.606	79.995	19.996	100.052	20.153	3.052	0.546
877.500	518.832	79.995	19.996	100.050	20.153	3.013	0.546
878.000	519.117	79.995	19.994	100.051	20.155	2.887	0.509
878.500	519.362	79.994	19.995	100.052	20.156	2.810	0.521
879.000	519.645	79.995	19.996	100.056	20.158	2.694	0.529
879.500	519.899	79.997	19.997	100.062	20.156	2.807	0.532
880.000	520.147	79.994	19.997	100.063	20.158	2.680	0.520
880.500	520.422	79.995	19.997	100.065	20.154	2.935	0.513
881.000	520.660	79.995	19.995	100.064	20.154	2.981	0.518
881.500	520.924	79.994	19.995	100.062	20.155	2.881	0.508
882.000	521.175	79.994	19.995	100.056	20.155	2.895	0.508
882.500	521.439	79.994	19.997	100.058	20.155	2.864	0.515
883.000	521.668	79.994	19.995	100.057	20.157	2.751	0.504
883.500	521.910	79.994	19.994	100.058	20.155	2.908	0.482
884.000	522.179	79.994	19.997	100.059	20.157	2.753	0.491
884.500	522.410	79.995	19.996	100.059	20.154	2.920	0.505
885.000	522.693	79.998	19.995	100.057	20.154	2.918	0.507
885.500	522.958	79.995	19.996	100.055	20.152	3.088	0.531
886.000	523.162	79.994	19.996	100.052	20.154	2.939	0.509
886.500	523.483	79.995	19.995	100.051	20.154	2.952	0.498
887.000	523.703	79.994	19.995	100.052	20.152	3.059	0.533
887.500	523.998	79.996	19.994	100.053	20.156	2.774	0.527
888.001	524.216	79.996	19.994	100.054	20.157	2.734	0.514
888.501	524.486	79.995	19.995	100.054	20.158	2.677	0.501
889.000	524.731	79.996	19.994	100.054	20.157	2.721	0.502
889.500	525.000	79.996	19.995	100.053	20.157	2.709	0.514
890.000	525.261	79.996	19.995	100.054	20.152	3.065	0.522
890.500	525.505	79.996	19.995	100.057	20.156	2.839	0.517
891.000	525.767	79.995	19.995	100.057	20.157	2.715	0.505
891.500	526.018	79.996	19.995	100.057	20.158	2.688	0.510
892.000	526.277	79.995	19.996	100.057	20.158	2.677	0.511
892.500	526.536	79.996	19.994	100.060	20.157	2.757	0.514
893.000	526.796	79.996	19.994	100.062	20.156	2.786	0.519
893.500	527.047	79.998	19.996	100.064	20.155	2.862	0.515
894.000	527.287	79.997	19.996	100.066	20.156	2.810	0.501
894.501	527.542	79.997	19.995	100.065	20.158	2.659	0.493
895.000	527.825	79.997	19.994	100.063	20.162	2.407	0.516
895.500	528.096	79.995	19.995	100.058	20.158	2.682	0.546
896.000	528.357	79.995	19.997	100.056	20.157	2.768	0.543
896.500	528.602	79.996	19.995	100.056	20.159	2.611	0.519
897.000	528.877	79.995	19.997	100.058	20.158	2.667	0.513
897.500	529.112	79.997	19.996	100.058	20.156	2.789	0.515
898.000	529.371	79.996	19.995	100.060	20.159	2.587	0.502
898.500	529.594	79.995	19.995	100.061	20.155	2.856	0.488
899.000	529.913	79.996	19.995	100.063	20.159	2.590	0.512
899.500	530.139	79.994	19.996	100.061	20.159	2.613	0.544
900.000	530.403	79.994	19.996	100.065	20.156	2.812	0.518
900.500	530.651	79.994	19.995	100.066	20.159	2.600	0.502
901.000	530.946	79.994	19.995	100.064	20.156	2.776	0.527
901.500	531.189	79.994	19.995	100.062	20.156	2.818	0.540
902.000	531.447	79.996	19.997	100.062	20.158	2.638	0.520
902.500	531.712	79.996	19.996	100.058	20.158	2.696	0.513
903.000	532.026	79.995	19.995	100.055	20.157	2.719	0.551
903.500	532.240	79.994	19.995	100.055	20.160	2.506	0.553
904.000	532.460	79.993	19.996	100.055	20.157	2.751	0.481
904.500	532.750	79.995	19.995	100.053	20.156	2.841	0.472
905.000	533.040	79.994	19.995	100.052	20.158	2.686	0.545
905.500	533.284	79.994	19.997	100.052	20.157	2.761	0.557
906.000	533.558	79.995	19.995	100.052	20.155	2.849	0.526
906.500	533.848	79.995	19.996	100.053	20.157	2.732	0.541
907.000	534.066	79.995	19.997	100.054	20.154	2.977	0.536
907.500	534.352	79.995	19.995	100.054	20.153	3.006	0.506
908.000	534.616	79.993	19.996	100.053	20.157	2.740	0.527
908.500	534.861	79.995	19.997	100.054	20.158	2.669	0.529
909.000	535.129	79.995	19.996	100.055	20.157	2.751	0.511
909.500	535.393	79.994	19.996	100.054	20.157	2.738	0.522
910.000	535.625	79.994	19.996	100.054	20.160	2.560	0.514
910.500	535.868	79.995	19.996	100.054	20.158	2.698	0.485
911.000	536.173	79.994	19.997	100.054	20.160	2.554	0.511
911.500	536.410	79.994	19.996	100.053	20.156	2.803	0.545
912.000	536.700	79.996	19.997	100.053	20.157	2.713	0.535
912.500	536.930	79.997	19.997	100.053	20.158	2.682	0.523
913.000	537.190	79.996	19.996	100.052	20.157	2.772	0.505
913.500	537.438	79.995	19.995	100.052	20.157	2.770	0.499
914.000	537.711	79.996	19.996	100.051	20.159	2.596	0.515
914.500	537.976	79.997	19.995	100.051	20.159	2.585	0.530
915.000	538.236	79.995	19.995	100.051	20.158	2.701	0.531
915.500	538.484	79.995	19.996	100.052	20.157	2.747	0.516
916.000	538.761	79.997	19.995	100.053	20.156	2.812	0.517
916.500	539.017	79.997	19.995	100.054	20.158	2.692	0.529
917.000	539.276	79.996	19.996	100.055	20.157	2.738	0.524
917.500	539.497	79.998	19.996	100.055	20.156	2.809	0.497
918.000	539.750	79.995	19.994	100.055	20.157	2.749	0.477
918.500	540.006	79.996	19.995	100.055	20.156	2.824	0.491
919.000	540.268	79.996	19.997	100.054	20.156	2.788	0.513
919.500	540.542	79.996	19.997	100.052	20.158	2.698	0.527
920.000	540.779	79.996	19.994	100.052	20.155	2.862	0.524
920.500	541.031	79.995	19.996	100.052	20.156	2.820	0.500
921.000	541.304	79.997	19.995	100.052	20.152	3.103	0.507
921.500	541.547	79.996	19.995	100.053	20.159	2.623	0.520
922.000	541.792	79.996	19.996	100.053	20.157	2.742	0.502
922.500	542.083	79.997	19.995	100.054	20.155	2.843	0.513
923.000	542.316	79.995	19.997	100.054	20.160	2.539	0.530
923.500	542.584	79.995	19.995	100.054	20.159	2.623	0.512
924.000	542.849	79.996	19.994	100.054	20.156	2.780	0.517
924.500	543.112	79.996	19.994	100.054	20.159	2.608	0.530
925.000	543.325	79.996	19.995	100.054	20.156	2.826	0.502
925.500	543.588	79.995	19.993	100.055	20.160	2.535	0.476
926.000	543.835	79.995	19.996	100.056	20.160	2.542	0.494
926.500	544.148	79.995	19.998	100.057	20.158	2.640	0.535
927.000	544.362	79.994	19.998	100.057	20.160	2.548	0.543
927.500	544.635	79.995	19.996	100.057	20.159	2.625	0.507
928.000	544.881	79.996	19.996	100.059	20.161	2.474	0.503
928.500	545.140	79.994	19.998	100.060	20.160	2.500	0.512
929.000	545.380	79.994	19.996	100.060	20.163	2.353	0.502
929.500	545.628	79.996	19.995	100.060	20.160	2.552	0.494
930.000	545.882	79.995	19.995	100.061	20.160	2.558	0.495
930.500	546.121	79.994	19.997	100.060	20.160	2.500	0.498
931.000	546.413	79.996	19.996	100.059	20.160	2.523	0.513
931.500	546.642	79.995	19.996	100.057	20.160	2.516	0.526
932.000	546.930	79.995	19.996	100.057	20.159	2.602	0.519
932.500	547.191	79.995	19.996	100.054	20.159	2.583	0.532
933.000	547.413	79.997	19.996	100.053	20.160	2.544	0.516
933.500	547.669	79.996	19.997	100.052	20.157	2.724	0.481
934.000	547.931	79.996	19.997	100.053	20.157	2.707	0.499
934.500	548.162	79.995	19.997	100.053	20.157	2.722	0.506
935.000	548.433	79.995	19.997	100.053	20.157	2.759	0.497
935.500	548.708	79.995	19.995	100.053	20.156	2.782	0.524
936.000	548.962	79.997	19.997	100.053	20.158	2.638	0.538
936.500	549.215	79.996	19.996	100.051	20.158	2.642	0.518
937.000	549.459	79.997	19.997	100.049	20.157	2.732	0.502
937.500	549.743	79.997	19.996	100.048	20.158	2.634	0.512
938.000	549.944	79.997	19.997	100.049	20.156	2.789	0.506
938.500	550.221	79.996	19.997	100.048	20.160	2.539	0.482
939.000	550.485	79.996	19.997	100.048	20.160	2.495	0.510
939.500	550.739	79.996	19.997	100.049	20.157	2.745	0.530
940.000	551.028	79.998	19.995	100.049	20.157	2.755	0.530
940.500	551.250	79.998	19.996	100.048	20.159	2.581	0.527
941.000	551.503	79.998	19.996	100.048	20.158	2.696	0.493
941.500	551.734	79.998	19.996	100.048	20.158	2.661	0.480
942.000	552.015	79.997	19.996	100.047	20.155	2.847	0.498
942.500	552.230	79.996	19.996	100.047	20.157	2.736	0.504
943.000	552.548	79.997	19.998	100.047	20.159	2.588	0.515
943.500	552.772	79.996	19.995	100.047	20.155	2.906	0.537
944.000	553.017	79.996	19.996	100.047	20.160	2.506	0.505
944.500	553.304	79.997	19.995	100.047	20.157	2.743	0.501
945.000	553.509	79.996	19.995	100.049	20.157	2.703	0.512
945.500	553.792	79.995	19.996	100.050	20.156	2.784	0.490
946.000	554.075	79.997	19.995	100.051	20.157	2.707	0.527
946.500	554.281	79.996	19.996	100.052	20.155	2.856	0.528
947.000	554.555	79.997	19.997	100.053	20.155	2.862	0.485
947.500	554.790	79.996	19.995	100.051	20.158	2.676	0.495
948.000	555.057	79.996	19.996	100.053	20.158	2.663	0.506
948.500	555.309	79.996	19.995	100.053	20.159	2.631	0.510
949.000	555.541	79.994	19.996	100.052	20.157	2.763	0.501
949.500	555.799	79.996	19.995	100.052	20.155	2.900	0.487
950.000	556.074	79.996	19.994	100.052	20.156	2.830	0.512
950.500	556.334	79.994	19.996	100.051	20.154	2.937	0.534
951.000	556.573	79.995	19.995	100.051	20.156	2.831	0.517
951.500	556.827	79.996	19.995	100.051	20.159	2.604	0.496
952.000	557.090	79.994	19.995	100.051	20.156	2.789	0.505
952.500	557.352	79.994	19.996	100.052	20.158	2.671	0.521
953.000	557.588	79.995	19.996	100.051	20.157	2.730	0.511
953.500	557.842	79.995	19.996	100.052	20.155	2.854	0.494
954.000	558.086	79.996	19.997	100.052	20.159	2.629	0.494
954.500	558.290	79.996	19.995	100.053	20.158	2.699	0.473
955.000	558.569	79.995	19.996	100.052	20.159	2.615	0.465
955.500	558.841	79.996	19.996	100.053	20.159	2.591	0.517
956.000	559.119	79.995	19.997	100.053	20.161	2.464	0.551
956.500	559.369	79.996	19.996	100.053	20.159	2.583	0.539
957.000	559.609	79.995	19.996	100.053	20.158	2.696	0.509
957.500	559.858	79.994	19.996	100.053	20.158	2.646	0.489
958.000	560.119	79.996	19.996	100.053	20.158	2.640	0.500
958.500	560.372	79.994	19.996	100.051	20.157	2.749	0.512
959.000	560.624	79.994	19.994	100.051	20.159	2.632	0.509
959.500	560.895	79.993	19.994	100.053	20.160	2.554	0.514
960.000	561.145	79.995	19.996	100.053	20.158	2.654	0.522
960.500	561.381	79.994	19.996	100.052	20.157	2.726	0.503
961.000	561.631	79.993	19.995	100.053	20.158	2.690	0.486
961.500	561.910	79.995	19.995	100.052	20.156	2.784	0.508
962.000	562.174	79.995	19.994	100.049	20.157	2.768	0.536
962.500	562.427	79.994	19.995	100.049	20.157	2.705	0.530
963.000	562.634	79.995	19.996	100.049	20.159	2.621	0.488
963.500	562.920	79.995	19.994	100.048	20.160	2.520	0.476
964.000	563.180	79.995	19.994	100.048	20.159	2.629	0.520
964.500	563.434	79.995	19.994	100.050	20.157	2.770	0.530
965.000	563.658	79.995	19.996	100.051	20.159	2.631	0.496
965.500	563.936	79.995	19.994	100.051	20.158	2.648	0.490
966.000	564.149	79.995	19.994	100.055	20.157	2.753	0.496
966.500	564.443	79.995	19.996	100.057	20.160	2.554	0.498
967.000	564.658	79.994	19.996	100.060	20.157	2.768	0.508
967.500	564.948	79.996	19.994	100.059	20.155	2.864	0.507
968.000	565.231	79.996	19.996	100.058	20.158	2.682	0.539
968.500	565.463	79.996	19.994	100.055	20.155	2.847	0.544
969.000	565.699	79.995	19.996	100.054	20.156	2.778	0.492
969.500	565.972	79.994	19.995	100.051	20.152	3.102	0.488
970.000	566.225	79.995	19.997	100.052	20.153	3.004	0.517
970.500	566.449	79.993	19.997	100.052	20.155	2.885	0.501
971.000	566.710	79.996	19.995	100.051	20.153	3.052	0.481
971.500	566.996	79.996	19.995	100.052	20.155	2.897	0.516
972.000	567.218	79.996	19.996	100.052	20.152	3.054	0.527
972.500	567.472	79.994	19.995	100.053	20.155	2.889	0.492
973.000	567.694	79.995	19.996	100.053	20.158	2.664	0.476
973.500	567.992	79.996	19.996	100.054	20.157	2.744	0.498
974.000	568.237	79.995	19.996	100.053	20.156	2.818	0.531
974.500	568.482	79.995	19.994	100.053	20.156	2.820	0.516
975.000	568.738	79.995	19.996	100.053	20.158	2.659	0.495
975.500	568.974	79.995	19.994	100.054	20.158	2.682	0.497
976.000	569.258	79.994	19.993	100.054	20.157	2.745	0.506
976.500	569.530	79.994	19.995	100.055	20.159	2.610	0.538
977.000	569.776	79.995	19.994	100.055	20.161	2.480	0.537
977.500	570.017	79.994	19.996	100.055	20.160	2.539	0.503
978.000	570.281	79.994	19.995	100.053	20.158	2.646	0.497
978.500	570.540	79.995	19.995	100.053	20.156	2.789	0.514
979.000	570.781	79.994	19.995	100.054	20.153	3.015	0.511
979.500	571.055	79.994	19.994	100.058	20.157	2.736	0.507
980.000	571.280	79.995	19.995	100.064	20.158	2.644	0.507
980.500	571.547	79.995	19.995	100.066	20.159	2.587	0.496
981.000	571.804	79.994	19.995	100.066	20.157	2.709	0.508
981.500	572.035	79.994	19.997	100.064	20.157	2.765	0.506
982.000	572.286	79.994	19.995	100.060	20.155	2.851	0.485
982.500	572.568	79.995	19.995	100.059	20.153	2.989	0.507
983.001	572.807	79.996	19.993	100.064	20.154	2.969	0.527
983.501	573.062	79.994	19.995	100.067	20.157	2.705	0.508
984.000	573.328	79.993	19.996	100.069	20.157	2.730	0.508
984.500	573.573	79.994	19.997	100.070	20.155	2.845	0.516
985.000	573.846	79.994	19.994	100.066	20.158	2.654	0.514
985.500	574.104	79.994	19.995	100.061	20.157	2.751	0.524
986.000	574.384	79.994	19.997	100.058	20.157	2.744	0.534
986.500	574.668	79.993	19.996	100.056	20.155	2.872	0.552
987.000	574.899	79.993	19.996	100.056	20.155	2.912	0.540
987.500	575.140	79.995	19.995	100.056	20.155	2.883	0.493
988.000	575.410	79.993	19.996	100.055	20.155	2.877	0.491
988.500	575.676	79.994	19.995	100.055	20.155	2.908	0.524
989.000	575.934	79.994	19.995	100.054	20.153	3.011	0.530
989.500	576.228	79.994	19.996	100.054	20.154	2.950	0.538
990.000	576.461	79.995	19.994	100.055	20.153	2.987	0.540
990.500	576.703	79.995	19.996	100.055	20.156	2.803	0.501
991.000	576.955	79.995	19.994	100.056	20.152	3.055	0.484
991.500	577.245	79.994	19.996	100.057	20.153	3.008	0.518
992.000	577.480	79.994	19.993	100.059	20.152	3.086	0.533
992.500	577.725	79.995	19.994	100.059	20.154	2.960	0.502
993.000	577.947	79.995	19.995	100.059	20.151	3.172	0.474
993.500	578.213	79.995	19.995	100.060	20.153	3.049	0.477
994.000	578.479	79.995	19.995	100.058	20.152	3.118	0.510
994.500	578.732	79.996	19.996	100.057	20.152	3.118	0.526
995.000	578.984	79.995	19.996	100.056	20.153	3.042	0.512
995.500	579.236	79.995	19.996	100.056	20.151	3.138	0.505
996.000	579.502	79.995	19.996	100.056	20.152	3.113	0.511
996.500	579.755	79.996	19.995	100.057	20.154	2.952	0.518
997.000	579.962	79.996	19.995	100.056	20.153	3.025	0.490
997.500	580.228	79.995	19.996	100.055	20.150	3.201	0.467
998.000	580.515	79.994	19.995	100.055	20.151	3.153	0.513
998.500	580.740	79.995	19.997	100.055	20.151	3.178	0.533
999.000	581.003	79.996	19.996	100.054	20.153	3.013	0.500
999.500	581.237	79.994	19.995	100.054	20.155	2.854	0.492
1000.000	581.502	79.995	19.996	100.054	20.153	3.042	0.498
1000.500	581.787	79.995	19.995	100.054	20.155	2.904	0.525
1001.000	582.004	79.995	19.997	100.055	20.155	2.872	0.526
1001.500	582.249	79.995	19.996	100.058	20.152	3.086	0.482
1002.000	582.538	79.996	19.995	100.057	20.154	2.944	0.499
1002.500	582.761	79.996	19.997	100.056	20.154	2.935	0.523
1003.000	583.024	79.996	19.996	100.055	20.153	3.036	0.498
1003.500	583.278	79.995	19.995	100.052	20.156	2.829	0.501
1004.000	583.524	79.995	19.997	100.049	20.157	2.728	0.509
1004.500	583.782	79.997	19.997	100.049	20.154	2.916	0.503
1005.000	584.023	79.995	19.997	100.049	20.154	2.950	0.502
1005.500	584.244	79.996	19.997	100.050	20.151	3.166	0.480
1006.000	584.507	79.995	19.997	100.050	20.155	2.912	0.473
1006.500	584.810	79.996	19.994	100.051	20.153	2.985	0.525
1007.000	585.037	79.997	19.996	100.052	20.150	3.199	0.548
1007.500	585.255	79.998	19.995	100.051	20.151	3.189	0.488
1008.000	585.530	79.995	19.996	100.051	20.148	3.337	0.469
1008.500	585.793	79.996	19.996	100.052	20.148	3.337	0.515
1009.000	586.047	79.996	19.995	100.052	20.152	3.118	0.527
1009.500	586.338	79.997	19.996	100.052	20.150	3.229	0.531
1010.000	586.577	79.996	19.996	100.052	20.152	3.078	0.537
1010.500	586.828	79.996	19.995	100.052	20.150	3.256	0.510
1011.000	587.092	79.995	19.996	100.051	20.153	3.042	0.502
1011.500	587.317	79.997	19.995	100.051	20.152	3.090	0.502
1012.000	587.579	79.997	19.995	100.051	20.150	3.203	0.488
1012.500	587.841	79.995	19.996	100.052	20.154	2.931	0.505
1013.000	588.065	79.995	19.995	100.052	20.152	3.057	0.505
1013.500	588.318	79.996	19.995	100.052	20.150	3.222	0.481
1014.000	588.595	79.996	19.996	100.051	20.151	3.153	0.504
1014.500	588.844	79.996	19.996	100.051	20.154	2.967	0.528
1015.000	589.086	79.998	19.996	100.049	20.150	3.239	0.508
1015.500	589.368	79.997	19.996	100.049	20.149	3.327	0.508
1016.000	589.618	79.997	19.996	100.050	20.152	3.107	0.528
1016.501	589.876	79.997	19.995	100.051	20.152	3.063	0.520
1017.001	590.099	79.998	19.994	100.053	20.149	3.325	0.494
1017.500	590.433	79.998	19.997	100.054	20.150	3.193	0.519
1018.000	590.668	79.997	19.997	100.055	20.150	3.235	0.563
1018.500	590.897	79.997	19.996	100.056	20.151	3.189	0.516
1019.000	591.135	79.997	19.995	100.054	20.153	3.015	0.466
1019.500	591.378	79.997	19.996	100.053	20.152	3.076	0.474
1020.000	591.660	79.998	19.995	100.052	20.155	2.862	0.503
1020.500	591.889	79.997	19.994	100.051	20.149	3.271	0.518
1021.000	592.159	79.997	19.994	100.050	20.150	3.233	0.505
1021.500	592.378	79.996	19.996	100.050	20.147	3.407	0.494
1022.000	592.646	79.995	19.995	100.050	20.148	3.344	0.488
1022.500	592.869	79.998	19.997	100.050	20.148	3.375	0.489
1023.000	593.155	79.997	19.997	100.050	20.150	3.247	0.500
1023.500	593.416	79.996	19.994	100.049	20.150	3.224	0.528
1024.000	593.695	79.996	19.998	100.050	20.151	3.168	0.544
1024.500	593.949	79.995	19.997	100.049	20.152	3.096	0.537
1025.000	594.211	79.995	19.996	100.049	20.151	3.161	0.524
1025.500	594.461	79.996	19.997	100.049	20.152	3.092	0.514
1026.000	594.690	79.995	19.996	100.048	20.149	3.319	0.496
1026.500	594.959	79.995	19.996	100.048	20.151	3.136	0.489
1027.000	595.235	79.997	19.997	100.048	20.149	3.319	0.521
1027.500	595.483	79.996	19.995	100.048	20.149	3.273	0.534
1028.000	595.740	79.995	19.998	100.048	20.149	3.321	0.514
1028.500	595.990	79.994	19.997	100.049	20.147	3.467	0.506
1029.000	596.259	79.994	19.996	100.048	20.149	3.275	0.513
1029.500	596.498	79.994	19.996	100.048	20.149	3.296	0.514
1030.000	596.764	79.994	19.996	100.048	20.148	3.335	0.507
1030.500	597.003	79.995	19.998	100.049	20.147	3.415	0.506
1031.000	597.247	79.995	19.997	100.049	20.148	3.346	0.494
1031.500	597.477	79.994	19.995	100.049	20.147	3.455	0.478
1032.000	597.759	79.995	19.996	100.048	20.146	3.497	0.493
1032.501	598.052	79.994	19.996	100.048	20.149	3.331	0.543
1033.001	598.274	79.995	19.995	100.048	20.147	3.455	0.545
1033.500	598.584	79.994	19.997	100.049	20.147	3.446	0.523
1034.000	598.834	79.993	20.001	100.052	20.146	3.478	0.546
1034.500	599.070	79.994	19.995	100.053	20.149	3.293	0.523
1035.000	599.331	79.996	19.995	100.054	20.148	3.340	0.492
1035.501	599.561	79.994	19.994	100.054	20.147	3.442	0.494
1036.001	599.845	79.993	19.995	100.056	20.145	3.576	0.503
1036.500	600.060	79.994	19.996	100.055	20.147	3.467	0.506
1037.000	600.330	79.994	19.995	100.055	20.145	3.557	0.492
1037.500	600.603	79.993	19.997	100.056	20.149	3.266	0.514
1038.000	600.822	79.994	19.995	100.057	20.146	3.488	0.517
1038.500	601.123	79.994	19.997	100.055	20.148	3.398	0.506
1039.000	601.421	79.994	19.997	100.055	20.145	3.551	0.560
1039.500	601.625	79.995	19.995	100.055	20.147	3.453	0.551
1040.000	601.900	79.994	19.996	100.054	20.149	3.319	0.490
1040.500	602.153	79.995	19.996	100.054	20.149	3.315	0.504
1041.000	602.386	79.995	19.994	100.054	20.150	3.231	0.507
1041.500	602.666	79.993	19.995	100.054	20.149	3.281	0.499
1042.000	602.912	79.995	19.995	100.056	20.149	3.281	0.519
1042.500	603.178	79.994	19.995	100.057	20.152	3.088	0.519
1043.000	603.444	79.995	19.996	100.057	20.151	3.178	0.522
1043.500	603.670	79.995	19.996	100.055	20.153	3.008	0.512
1044.000	603.942	79.995	19.994	100.055	20.151	3.155	0.495
1044.500	604.158	79.994	19.994	100.053	20.153	3.048	0.493
1045.000	604.447	79.995	19.995	100.053	20.153	3.030	0.497
1045.500	604.725	79.994	19.995	100.054	20.151	3.191	0.536
1046.000	604.938	79.993	19.994	100.055	20.150	3.207	0.529
1046.500	605.196	79.995	19.994	100.055	20.152	3.076	0.480
1047.001	605.463	79.994	19.998	100.055	20.155	2.910	0.498
1047.501	605.744	79.993	19.996	100.055	20.155	2.864	0.537
1048.000	606.006	79.995	19.995	100.055	20.156	2.799	0.546
1048.500	606.252	79.995	19.993	100.054	20.157	2.763	0.526
1049.000	606.504	79.994	19.994	100.053	20.154	2.942	0.503
1049.500	606.762	79.996	19.995	100.052	20.153	3.023	0.504
1050.000	606.999	79.995	19.994	100.051	20.154	2.965	0.502
1050.500	607.231	79.994	19.994	100.051	20.156	2.824	0.482
1051.001	607.512	79.995	19.996	100.049	20.153	2.983	0.491
1051.501	607.778	79.995	19.996	100.050	20.158	2.696	0.531
1052.000	608.034	79.993	19.996	100.051	20.157	2.711	0.534
1052.500	608.287	79.994	19.994	100.052	20.155	2.851	0.515
1053.000	608.538	79.995	19.995	100.051	20.156	2.801	0.507
1053.500	608.786	79.994	19.993	100.053	20.156	2.808	0.502
1054.000	609.077	79.994	19.996	100.054	20.159	2.590	0.519
1054.500	609.303	79.994	19.996	100.054	20.159	2.588	0.528
1055.000	609.585	79.995	19.996	100.054	20.160	2.516	0.513
1055.500	609.826	79.995	19.997	100.054	20.159	2.621	0.516
1056.000	610.064	79.994	19.996	100.055	20.158	2.649	0.501
1056.501	610.370	79.994	19.995	100.054	20.160	2.550	0.511
1057.001	610.586	79.994	19.997	100.055	20.156	2.816	0.533
1057.501	610.880	79.995	19.997	100.054	20.156	2.785	0.516
1058.000	611.114	79.993	19.994	100.054	20.158	2.682	0.519
1058.500	611.403	79.994	19.997	100.052	20.159	2.632	0.525
1059.000	611.649	79.994	19.996	100.049	20.153	2.990	0.529
1059.500	611.919	79.994	19.994	100.049	20.158	2.650	0.525
1060.000	612.139	79.994	19.995	100.050	20.159	2.564	0.503
1060.500	612.434	79.995	19.995	100.051	20.160	2.560	0.503
1061.000	612.650	79.995	19.995	100.053	20.158	2.646	0.513
1061.500	612.932	79.994	19.996	100.056	20.161	2.470	0.504
1062.000	613.205	79.995	19.997	100.056	20.158	2.695	0.526
1062.500	613.452	79.994	19.997	100.056	20.158	2.650	0.538
1063.000	613.723	79.994	19.999	100.055	20.159	2.628	0.519
1063.500	613.965	79.995	19.996	100.054	20.162	2.403	0.516
1064.000	614.220	79.994	19.994	100.053	20.162	2.386	0.505
1064.500	614.531	79.994	19.994	100.052	20.161	2.483	0.531
1065.000	614.751	79.994	19.995	100.051	20.163	2.349	0.548
1065.500	615.016	79.994	19.995	100.051	20.164	2.258	0.508
1066.000	615.260	79.995	19.993	100.045	20.162	2.378	0.498
1066.500	615.523	79.995	19.995	100.042	20.163	2.313	0.508
1067.000	615.763	79.996	19.996	100.042	20.165	2.204	0.505
1067.500	616.047	79.996	19.995	100.042	20.161	2.477	0.513
1068.000	616.305	79.995	19.997	100.042	20.164	2.229	0.533
1068.500	616.584	79.995	19.994	100.048	20.163	2.334	0.539
1069.000	616.821	79.996	19.996	100.050	20.164	2.259	0.527
1069.500	617.068	79.996	19.992	100.051	20.166	2.137	0.500
1070.000	617.336	79.997	19.995	100.051	20.162	2.361	0.500
1070.500	617.594	79.996	19.996	100.050	20.164	2.280	0.520
1071.000	617.855	79.997	19.995	100.051	20.162	2.374	0.522
1071.500	618.104	79.996	19.996	100.051	20.161	2.428	0.514
1072.000	618.384	79.997	19.995	100.049	20.166	2.139	0.520
1072.500	618.616	79.997	19.995	100.047	20.165	2.200	0.521
1073.000	618.869	79.996	19.994	100.045	20.163	2.340	0.499
1073.500	619.095	79.997	19.995	100.045	20.164	2.227	0.482
1074.000	619.367	79.998	19.995	100.043	20.166	2.137	0.489
1074.500	619.610	79.997	19.995	100.045	20.162	2.393	0.507
1075.000	619.877	79.997	19.996	100.048	20.163	2.292	0.513
1075.500	620.153	79.997	19.997	100.050	20.165	2.164	0.526
1076.000	620.405	79.997	19.995	100.050	20.164	2.217	0.535
1076.500	620.641	79.997	19.995	100.052	20.162	2.370	0.508
1077.000	620.891	79.995	19.995	100.050	20.163	2.319	0.487
1077.500	621.149	79.997	19.997	100.044	20.166	2.118	0.497
1078.000	621.413	79.997	19.996	100.041	20.165	2.156	0.515
1078.501	621.663	79.996	19.994	100.038	20.164	2.255	0.518
1079.001	621.921	79.996	19.996	100.038	20.163	2.297	0.511
1079.501	622.207	79.997	19.997	100.038	20.163	2.335	0.527
1080.000	622.441	79.996	19.995	100.040	20.165	2.165	0.532
1080.500	622.689	79.996	19.995	100.041	20.166	2.083	0.501
1081.000	622.972	79.996	19.996	100.043	20.161	2.468	0.507
1081.500	623.212	79.996	19.996	100.041	20.161	2.425	0.527
1082.000	623.458	79.996	19.995	100.042	20.161	2.427	0.504
1082.501	623.698	79.994	19.997	100.045	20.160	2.512	0.485
1083.001	623.992	79.997	19.996	100.046	20.163	2.305	0.510
1083.501	624.263	79.996	19.995	100.045	20.161	2.424	0.550
1084.001	624.455	79.995	19.995	100.047	20.166	2.095	0.514
1084.500	624.732	79.994	19.995	100.049	20.163	2.305	0.466
1085.001	624.957	79.995	19.995	100.048	20.163	2.332	0.486
1085.501	625.223	79.996	19.994	100.044	20.162	2.412	0.497
1086.000	625.480	79.995	19.995	100.042	20.164	2.276	0.507
1086.500	625.719	79.997	19.996	100.041	20.166	2.132	0.510
1087.000	625.975	79.995	19.998	100.040	20.162	2.404	0.495
1087.501	626.251	79.994	19.997	100.042	20.166	2.121	0.513
1088.001	626.459	79.996	19.996	100.043	20.164	2.270	0.508
1088.501	626.731	79.995	19.996	100.042	20.164	2.221	0.482
1089.000	626.982	79.995	19.995	100.037	20.168	1.993	0.502
1089.500	627.202	79.996	19.995	100.037	20.165	2.196	0.497
1090.000	627.468	79.996	19.996	100.031	20.166	2.133	0.478
1090.500	627.739	79.995	19.995	100.031	20.166	2.120	0.511
1091.000	627.989	79.996	19.996	100.034	20.164	2.257	0.529
1091.500	628.251	79.996	19.996	100.037	20.167	2.056	0.516
1092.000	628.486	79.995	19.996	100.036	20.167	2.041	0.504
1092.500	628.738	79.995	19.994	100.036	20.165	2.154	0.492
1093.000	628.986	79.996	19.996	100.037	20.167	2.006	0.493
1093.500	629.226	79.995	19.996	100.038	20.168	1.968	0.494
1094.000	629.499	79.995	19.996	100.037	20.165	2.163	0.501
1094.500	629.741	79.997	19.997	100.038	20.167	2.070	0.514
1095.000	629.958	79.997	19.996	100.044	20.167	2.072	0.487
1095.501	630.235	79.997	19.996	100.038	20.165	2.167	0.477
1096.001	630.508	79.996	19.996	100.031	20.165	2.186	0.522
1096.501	630.714	79.996	19.995	100.029	20.165	2.173	0.515
1097.001	630.973	79.998	19.994	100.022	20.165	2.160	0.472
1097.500	631.231	79.997	19.992	100.021	20.167	2.011	0.491
1098.001	631.496	79.996	19.994	100.029	20.164	2.257	0.520
1098.501	631.729	79.998	19.993	100.032	20.167	2.068	0.510
1099.001	631.996	79.997	19.994	100.034	20.165	2.200	0.499
1099.500	632.237	79.997	19.994	100.041	20.165	2.148	0.504
1100.001	632.478	79.996	19.995	100.043	20.164	2.280	0.495
1100.502	632.721	79.997	19.995	100.041	20.164	2.227	0.483
1101.001	632.947	79.997	19.994	100.043	20.165	2.154	0.476
1101.500	633.236	79.998	19.996	100.048	20.166	2.141	0.492
1102.000	633.484	79.996	19.998	100.045	20.164	2.278	0.526
1102.500	633.743	79.996	19.997	100.038	20.162	2.399	0.522
1103.000	633.975	79.998	19.995	100.033	20.163	2.292	0.500
1103.500	634.286	79.996	19.996	100.032	20.163	2.313	0.517
1104.000	634.491	79.996	19.996	100.026	20.159	2.573	0.529
1104.500	634.749	79.996	19.995	100.022	20.161	2.426	0.489
1105.000	634.994	79.997	19.995	100.025	20.162	2.410	0.483
1105.500	635.281	79.996	19.996	100.029	20.162	2.391	0.518
1106.000	635.538	79.995	19.996	100.033	20.160	2.541	0.538
1106.501	635.772	79.995	19.996	100.036	20.161	2.485	0.518
1107.001	636.048	79.996	19.996	100.041	20.163	2.324	0.501
1107.500	636.285	79.994	19.996	100.045	20.161	2.424	0.511
1108.000	636.510	79.994	19.996	100.044	20.163	2.317	0.487
1108.500	636.804	79.994	19.997	100.042	20.159	2.613	0.491
1109.000	637.039	79.993	19.996	100.044	20.160	2.531	0.524
1109.500	637.299	79.994	19.997	100.047	20.161	2.437	0.512
1110.000	637.534	79.993	19.996	100.045	20.161	2.481	0.495
1110.500	637.764	79.995	19.997	100.044	20.162	2.374	0.480
1111.001	638.025	79.992	19.996	100.044	20.162	2.384	0.477
1111.501	638.263	79.993	19.997	100.043	20.164	2.225	0.495
1112.000	638.544	79.994	19.997	100.043	20.163	2.303	0.509
1112.501	638.810	79.992	19.996	100.043	20.161	2.470	0.533
1113.001	639.005	79.995	19.997	100.045	20.161	2.487	0.504
1113.501	639.313	79.994	19.997	100.044	20.163	2.353	0.483
1114.001	639.541	79.993	19.996	100.041	20.163	2.345	0.520
1114.500	639.791	79.993	19.996	100.040	20.162	2.383	0.507
1115.000	640.037	79.994	19.996	100.041	20.160	2.531	0.487
1115.500	640.277	79.994	19.996	100.044	20.160	2.556	0.491
1116.000	640.519	79.995	19.997	100.047	20.162	2.389	0.484
1116.500	640.803	79.995	19.997	100.050	20.160	2.535	0.504
1117.000	641.010	79.994	19.998	100.052	20.160	2.542	0.509
1117.500	641.282	79.994	19.997	100.051	20.162	2.422	0.485
1118.000	641.519	79.993	19.996	100.051	20.158	2.636	0.494
1118.500	641.783	79.995	19.996	100.051	20.160	2.514	0.505
1119.000	642.016	79.995	19.995	100.053	20.161	2.472	0.499
1119.500	642.334	79.995	19.997	100.053	20.162	2.412	0.524
1120.000	642.522	79.994	19.995	100.052	20.163	2.309	0.528
1120.500	642.783	79.995	19.997	100.050	20.165	2.190	0.477
1121.000	643.067	79.994	19.996	100.048	20.162	2.412	0.497
1121.500	643.289	79.994	19.997	100.046	20.162	2.420	0.526
1122.000	643.528	79.994	19.995	100.046	20.161	2.456	0.484
1122.500	643.767	79.996	19.995	100.043	20.160	2.504	0.470
1123.000	644.023	79.995	19.995	100.043	20.161	2.433	0.486
1123.500	644.272	79.996	19.995	100.045	20.161	2.426	0.500
1124.000	644.483	79.995	19.995	100.044	20.163	2.324	0.483
1124.500	644.790	79.995	19.995	100.039	20.165	2.211	0.489
1125.000	645.040	79.995	19.995	100.040	20.166	2.127	0.537
1125.500	645.292	79.995	19.996	100.040	20.163	2.316	0.529
1126.000	645.523	79.994	19.996	100.038	20.166	2.089	0.492
1126.500	645.805	79.996	19.997	100.040	20.163	2.284	0.498
1127.001	646.016	79.996	19.994	100.044	20.164	2.217	0.504
1127.501	646.285	79.997	19.995	100.041	20.165	2.146	0.486
1128.000	646.574	79.996	19.996	100.042	20.165	2.202	0.519
1128.500	646.818	79.995	19.995	100.042	20.165	2.190	0.546
1129.000	647.024	79.996	19.994	100.041	20.165	2.152	0.492
1129.500	647.299	79.995	19.995	100.040	20.163	2.296	0.465
1130.000	647.511	79.994	19.993	100.047	20.162	2.365	0.484
1130.500	647.755	79.995	19.995	100.048	20.163	2.286	0.472
1131.000	648.051	79.996	19.995	100.045	20.167	2.072	0.498
1131.500	648.280	79.996	19.994	100.046	20.165	2.171	0.533
1132.000	648.548	79.995	19.995	100.046	20.165	2.167	0.511
1132.500	648.794	79.996	19.994	100.046	20.163	2.324	0.506
1133.000	649.072	79.995	19.994	100.046	20.165	2.165	0.519
1133.500	649.351	79.995	19.998	100.048	20.167	2.043	0.540
1134.000	649.610	79.994	19.994	100.048	20.165	2.207	0.547
1134.500	649.894	79.995	19.995	100.047	20.165	2.173	0.540
1135.000	650.129	79.996	19.995	100.043	20.162	2.387	0.531
1135.500	650.360	79.994	19.995	100.038	20.166	2.137	0.493
1136.000	650.614	79.993	19.995	100.034	20.164	2.255	0.476
1136.500	650.861	79.994	19.994	100.031	20.162	2.412	0.493
1137.000	651.144	79.995	19.995	100.026	20.161	2.470	0.515
1137.500	651.381	79.995	19.994	100.029	20.163	2.303	0.525
1138.000	651.644	79.994	19.996	100.034	20.163	2.288	0.510
1138.500	651.866	79.996	19.995	100.039	20.164	2.225	0.492
1139.000	652.149	79.996	19.995	100.044	20.161	2.424	0.495
1139.500	652.399	79.994	19.997	100.049	20.164	2.269	0.519
1140.000	652.674	79.994	19.996	100.050	20.167	2.031	0.529
1140.500	652.914	79.994	19.996	100.048	20.164	2.221	0.520
1141.000	653.165	79.993	19.997	100.047	20.166	2.083	0.503
1141.500	653.415	79.995	19.996	100.044	20.163	2.336	0.496
1142.000	653.687	79.993	19.995	100.041	20.162	2.380	0.511
1142.500	653.969	79.994	19.998	100.036	20.166	2.119	0.537
1143.000	654.182	79.995	19.996	100.032	20.164	2.267	0.524
1143.500	654.452	79.994	19.996	100.033	20.165	2.167	0.489
1144.000	654.715	79.993	19.996	100.035	20.166	2.141	0.508
1144.500	654.980	79.995	19.994	100.036	20.163	2.311	0.530
1145.000	655.248	79.995	19.995	100.037	20.166	2.139	0.531
1145.500	655.502	79.995	19.995	100.042	20.162	2.383	0.528
1146.000	655.728	79.995	19.997	100.038	20.162	2.391	0.501
1146.500	655.997	79.995	19.995	100.034	20.163	2.343	0.487
1147.000	656.271	79.996	19.996	100.036	20.163	2.311	0.519
1147.500	656.504	79.996	19.997	100.039	20.165	2.158	0.525
1148.000	656.732	79.996	19.995	100.039	20.163	2.328	0.484
1148.500	657.034	79.996	19.998	100.043	20.165	2.181	0.496
1149.000	657.279	79.995	19.994	100.044	20.165	2.202	0.539
1149.500	657.535	79.996	19.997	100.039	20.162	2.401	0.524
1150.000	657.787	79.996	19.994	100.036	20.165	2.206	0.505
1150.500	658.005	79.996	19.994	100.033	20.166	2.110	0.489
1151.000	658.240	79.997	19.994	100.031	20.166	2.116	0.461
1151.500	658.549	79.996	19.994	100.031	20.162	2.370	0.499
1152.000	658.807	79.995	19.997	100.036	20.166	2.112	0.556
1152.500	659.069	79.997	19.995	100.036	20.162	2.363	0.544
1153.001	659.328	79.996	19.995	100.036	20.163	2.300	0.521
1153.501	659.536	79.998	19.996	100.038	20.161	2.466	0.494
1154.000	659.800	79.998	19.996	100.041	20.163	2.296	0.469
1154.500	660.050	79.997	19.995	100.042	20.162	2.370	0.492
1155.000	660.325	79.997	19.994	100.044	20.162	2.381	0.519
1155.500	660.586	79.997	19.993	100.046	20.164	2.232	0.531
1156.001	660.809	79.997	19.996	100.043	20.166	2.137	0.510
1156.501	661.087	79.999	19.995	100.039	20.166	2.131	0.493
1157.000	661.304	79.998	19.994	100.032	20.162	2.370	0.498
1157.500	661.581	79.998	19.995	100.029	20.162	2.393	0.495
1158.000	661.806	79.998	19.997	100.032	20.164	2.228	0.498
1158.500	662.077	79.996	19.996	100.035	20.163	2.324	0.499
1159.000	662.366	79.997	19.995	100.041	20.168	1.937	0.528
1159.500	662.592	79.997	19.995	100.048	20.164	2.245	0.537
1160.000	662.859	79.996	19.995	100.047	20.165	2.188	0.504
1160.500	663.044	79.995	19.996	100.045	20.162	2.355	0.473
1161.000	663.400	79.997	19.995	100.042	20.162	2.374	0.497
1161.500	663.608	79.995	19.995	100.039	20.160	2.519	0.553
1162.001	663.889	79.996	19.995	100.040	20.162	2.395	0.527
1162.501	664.140	79.996	19.997	100.045	20.164	2.282	0.511
1163.000	664.368	79.996	19.995	100.046	20.165	2.171	0.505
1163.500	664.597	79.995	19.996	100.049	20.164	2.265	0.468
1164.000	664.910	79.995	19.994	100.051	20.163	2.299	0.500
1164.500	665.078	79.995	19.994	100.049	20.164	2.215	0.512
1165.000	665.407	79.995	19.995	100.043	20.163	2.326	0.489
1165.500	665.638	79.997	19.995	100.038	20.163	2.328	0.528
1166.000	665.889	79.996	19.996	100.036	20.165	2.211	0.521
1166.500	666.163	79.996	19.994	100.035	20.159	2.622	0.504
1167.000	666.394	79.996	19.996	100.036	20.160	2.519	0.515
1167.500	666.630	79.995	19.996	100.043	20.162	2.394	0.486
1168.000	666.896	79.995	19.996	100.047	20.160	2.500	0.484
1168.500	667.099	79.995	19.995	100.044	20.165	2.146	0.486
1169.000	667.417	79.995	19.994	100.037	20.161	2.448	0.496
1169.500	667.678	79.996	19.995	100.032	20.162	2.401	0.551
1170.000	667.943	79.996	19.997	100.024	20.161	2.468	0.552
1170.500	668.174	79.997	19.998	100.023	20.163	2.343	0.511
1171.000	668.435	79.995	19.995	100.028	20.166	2.079	0.494
1171.500	668.686	79.996	19.996	100.034	20.165	2.189	0.502
1172.000	668.981	79.995	19.997	100.038	20.163	2.296	0.529
1172.501	669.206	79.996	19.995	100.041	20.163	2.288	0.533
1173.001	669.504	79.998	19.997	100.041	20.164	2.240	0.521
1173.500	669.728	79.997	19.993	100.041	20.162	2.364	0.523
1174.000	669.998	79.995	19.997	100.042	20.162	2.380	0.508
1174.500	670.216	79.996	19.995	100.044	20.164	2.230	0.491
1175.000	670.475	79.996	19.997	100.047	20.165	2.150	0.483
1175.500	670.700	79.996	19.996	100.046	20.161	2.435	0.480
1176.000	670.993	79.997	19.996	100.043	20.162	2.374	0.501
1176.500	671.242	79.997	19.994	100.036	20.162	2.359	0.530
1177.000	671.480	79.997	19.996	100.029	20.163	2.341	0.515
1177.500	671.756	79.998	19.996	100.024	20.164	2.266	0.500
1178.000	671.965	79.998	19.996	100.020	20.165	2.177	0.499
1178.500	672.239	79.999	19.994	100.018	20.162	2.404	0.484
1179.000	672.457	79.997	19.995	100.024	20.162	2.364	0.488
1179.500	672.741	79.997	19.996	100.030	20.164	2.215	0.497
1180.000	672.989	79.996	19.997	100.031	20.167	2.045	0.517
1180.500	673.243	79.998	19.996	100.036	20.166	2.110	0.517
1181.000	673.471	79.996	19.995	100.043	20.164	2.225	0.492
1181.500	673.753	79.995	19.994	100.044	20.167	2.062	0.496
1182.000	673.987	79.996	19.995	100.044	20.165	2.152	0.513
1182.500	674.282	79.996	19.998	100.048	20.165	2.207	0.522
1183.000	674.552	79.996	19.994	100.049	20.164	2.234	0.547
1183.500	674.792	79.997	19.995	100.049	20.168	1.964	0.538
1184.000	675.040	79.997	19.996	100.047	20.164	2.265	0.499
1184.500	675.309	79.997	19.993	100.043	20.166	2.131	0.503
1185.000	675.564	79.996	19.995	100.040	20.162	2.387	0.521
1185.500	675.848	79.995	19.995	100.040	20.166	2.117	0.531
1186.001	676.063	79.995	19.996	100.040	20.165	2.161	0.519
1186.501	676.312	79.995	19.995	100.042	20.164	2.244	0.481
1187.000	676.542	79.994	19.996	100.040	20.164	2.228	0.471
1187.500	676.813	79.996	19.996	100.038	20.164	2.230	0.490
1188.000	677.041	79.994	19.995	100.033	20.162	2.412	0.500
1188.500	677.300	79.994	19.996	100.026	20.160	2.554	0.492
1189.000	677.592	79.995	19.996	100.022	20.161	2.437	0.519
1189.500	677.808	79.994	19.996	100.023	20.163	2.332	0.530
1190.000	678.088	79.995	19.995	100.028	20.162	2.420	0.502
1190.500	678.368	79.995	19.997	100.033	20.161	2.481	0.528
1191.001	678.539	79.995	19.996	100.039	20.165	2.211	0.506
1191.501	678.855	79.995	19.994	100.043	20.161	2.428	0.469
1192.001	679.122	79.996	19.995	100.041	20.162	2.386	0.535
1192.501	679.352	79.995	19.995	100.039	20.165	2.152	0.540
1193.000	679.603	79.995	19.998	100.037	20.164	2.231	0.489
1193.500	679.846	79.995	19.997	100.031	20.162	2.368	0.487
1194.000	680.146	79.993	19.996	100.026	20.162	2.412	0.518
1194.500	680.336	79.993	19.996	100.030	20.162	2.422	0.517
1195.000	680.613	79.993	19.995	100.029	20.163	2.330	0.479
1195.500	680.864	79.995	19.996	100.027	20.162	2.381	0.498
1196.000	681.104	79.994	19.996	100.029	20.162	2.400	0.509
1196.500	681.380	79.995	19.998	100.032	20.163	2.337	0.503
1197.000	681.606	79.994	19.994	100.029	20.166	2.125	0.510
1197.500	681.838	79.994	19.996	100.030	20.163	2.326	0.480
1198.000	682.108	79.993	19.996	100.030	20.163	2.332	0.480
1198.500	682.349	79.993	19.997	100.029	20.163	2.326	0.507
1199.000	682.608	79.994	19.997	100.031	20.161	2.456	0.506
1199.500	682.846	79.995	19.996	100.035	20.165	2.145	0.498
1200.000	683.118	79.995	19.996	100.036	20.163	2.353	0.503
1200.500	683.362	79.994	19.995	100.036	20.164	2.278	0.513
1201.000	683.616	79.995	19.997	100.040	20.167	2.011	0.507
1201.500	683.860	79.994	19.996	100.041	20.162	2.374	0.498
1202.000	684.094	79.992	19.998	100.042	20.163	2.318	0.488
1202.500	684.348	79.994	19.998	100.041	20.162	2.395	0.483
1203.000	684.619	79.994	19.997	100.044	20.163	2.303	0.507
1203.500	684.846	79.993	19.997	100.044	20.163	2.286	0.511
1204.000	685.127	79.994	19.995	100.043	20.163	2.330	0.503
1204.500	685.358	79.994	19.997	100.041	20.163	2.315	0.510
1205.000	685.617	79.994	19.998	100.040	20.162	2.359	0.500
1205.501	685.861	79.995	19.997	100.035	20.163	2.284	0.496
1206.001	686.123	79.994	19.997	100.031	20.161	2.487	0.505
1206.500	686.363	79.995	19.996	100.025	20.166	2.127	0.504
1207.000	686.659	79.995	19.995	100.026	20.164	2.282	0.519
1207.500	686.867	79.994	19.996	100.029	20.166	2.125	0.520
1208.000	687.132	79.996	19.995	100.035	20.163	2.330	0.488
1208.500	687.368	79.995	19.996	100.041	20.162	2.370	0.487
1209.000	687.656	79.995	19.996	100.046	20.164	2.228	0.513
1209.500	687.883	79.995	19.995	100.048	20.159	2.601	0.520
1210.000	688.165	79.996	19.995	100.050	20.160	2.494	0.512
1210.500	688.428	79.996	19.996	100.050	20.163	2.324	0.527
1211.000	688.667	79.994	19.996	100.049	20.166	2.108	0.524
1211.500	688.927	79.996	19.995	100.048	20.163	2.318	0.500
1212.000	689.162	79.994	19.996	100.044	20.160	2.515	0.496
1212.500	689.428	79.994	19.995	100.039	20.160	2.502	0.498
1213.000	689.685	79.994	19.996	100.036	20.163	2.290	0.512
1213.500	689.926	79.995	19.995	100.035	20.165	2.202	0.511
1214.000	690.177	79.996	19.994	100.036	20.162	2.404	0.495
1214.500	690.437	79.996	19.996	100.039	20.162	2.378	0.502
1215.000	690.679	79.995	19.995	100.043	20.158	2.688	0.506
1215.500	690.924	79.994	19.996	100.046	20.162	2.393	0.494
1216.000	691.199	79.993	19.995	100.042	20.161	2.473	0.504
1216.500	691.457	79.993	19.995	100.038	20.160	2.515	0.526
1217.000	691.738	79.994	19.994	100.032	20.161	2.443	0.536
1217.500	691.944	79.995	19.995	100.025	20.158	2.643	0.513
1218.001	692.202	79.994	19.995	100.021	20.161	2.456	0.476
1218.501	692.478	79.994	19.997	100.021	20.160	2.515	0.499
1219.001	692.705	79.994	19.996	100.023	20.160	2.515	0.519
1219.501	692.956	79.995	19.995	100.025	20.163	2.353	0.491
1220.001	693.219	79.993	19.996	100.026	20.163	2.293	0.496
1220.501	693.499	79.995	19.996	100.024	20.162	2.357	0.528
1221.000	693.755	79.995	19.995	100.025	20.162	2.357	0.540
1221.500	693.982	79.995	19.995	100.024	20.161	2.493	0.509
1222.001	694.217	79.994	19.996	100.025	20.162	2.414	0.472
1222.501	694.531	79.994	19.997	100.030	20.162	2.378	0.506
1223.001	694.742	79.993	19.995	100.036	20.162	2.374	0.537
1223.501	694.990	79.995	19.996	100.038	20.162	2.372	0.492
1224.000	695.235	79.995	19.995	100.038	20.163	2.315	0.476
1224.500	695.544	79.994	19.995	100.038	20.162	2.412	0.523
1225.000	695.801	79.994	19.996	100.039	20.163	2.332	0.560
1225.500	696.033	79.995	19.995	100.038	20.161	2.452	0.528
1226.000	696.317	79.995	19.996	100.036	20.162	2.370	0.503
1226.500	696.549	79.995	19.996	100.035	20.161	2.435	0.516
1227.000	696.795	79.993	19.996	100.035	20.162	2.382	0.497
1227.501	697.080	79.995	19.995	100.032	20.164	2.276	0.504
1228.001	697.319	79.995	19.996	100.031	20.162	2.399	0.528
1228.500	697.544	79.996	19.996	100.034	20.164	2.221	0.494
1229.001	697.851	79.995	19.997	100.034	20.166	2.081	0.498
1229.500	698.083	79.996	19.995	100.034	20.165	2.148	0.536
1230.000	698.344	79.995	19.995	100.031	20.167	2.056	0.516
1230.500	698.602	79.996	19.995	100.029	20.168	1.945	0.506
1231.000	698.883	79.997	19.996	100.027	20.161	2.429	0.529
1231.500	699.075	79.995	19.996	100.034	20.162	2.404	0.506
1232.000	699.361	79.995	19.994	100.039	20.163	2.328	0.476
1232.500	699.625	79.995	19.995	100.043	20.165	2.196	0.514
1233.000	699.884	79.997	19.995	100.044	20.163	2.284	0.536
1233.500	700.138	79.996	19.995	100.042	20.163	2.299	0.518
1234.000	700.407	79.996	19.995	100.036	20.164	2.219	0.518
1234.500	700.668	79.996	19.995	100.034	20.166	2.083	0.526
1235.000	700.915	79.996	19.995	100.035	20.165	2.191	0.519
1235.500	701.173	79.994	19.994	100.038	20.164	2.259	0.507
1236.000	701.404	79.995	19.995	100.038	20.166	2.122	0.497
1236.500	701.683	79.995	19.994	100.038	20.161	2.430	0.499
1237.000	701.956	79.995	19.995	100.040	20.165	2.164	0.531
1237.500	702.207	79.995	19.995	100.040	20.165	2.148	0.538
1238.000	702.466	79.992	19.995	100.039	20.162	2.364	0.517
1238.500	702.725	79.995	19.995	100.039	20.159	2.582	0.514
1239.000	702.965	79.996	19.995	100.039	20.166	2.136	0.508
1239.500	703.213	79.995	19.995	100.031	20.163	2.347	0.494
1240.000	703.439	79.995	19.994	100.025	20.159	2.599	0.481
1240.500	703.727	79.994	19.996	100.021	20.163	2.320	0.494
1241.000	703.966	79.995	19.996	100.021	20.163	2.324	0.520
1241.500	704.234	79.995	19.996	100.024	20.162	2.406	0.517
1242.000	704.482	79.995	19.995	100.028	20.163	2.340	0.512
1242.500	704.764	79.996	19.994	100.031	20.164	2.242	0.523
1243.000	705.026	79.995	19.994	100.033	20.164	2.273	0.537
1243.500	705.234	79.996	19.994	100.034	20.167	2.022	0.507
1244.000	705.524	79.994	19.994	100.036	20.160	2.500	0.484
1244.500	705.755	79.994	19.995	100.041	20.162	2.372	0.509
1245.000	706.028	79.996	19.995	100.045	20.161	2.438	0.512
1245.500	706.270	79.995	19.995	100.050	20.160	2.515	0.509
1246.000	706.547	79.997	19.994	100.054	20.163	2.299	0.517
1246.500	706.814	79.996	19.995	100.052	20.160	2.527	0.532
1247.000	707.034	79.996	19.994	100.047	20.160	2.525	0.515
1247.500	707.329	79.995	19.995	100.046	20.165	2.209	0.501
1248.000	707.542	79.995	19.995	100.042	20.163	2.341	0.511
1248.500	707.818	79.996	19.994	100.034	20.163	2.311	0.498
1249.000	708.091	79.997	19.995	100.030	20.161	2.443	0.519
1249.500	708.345	79.996	19.995	100.027	20.160	2.536	0.538
1250.000	708.615	79.996	19.994	100.021	20.162	2.399	0.526
1250.500	708.849	79.997	19.995	100.021	20.160	2.559	0.514
1251.000	709.129	79.997	19.995	100.026	20.156	2.777	0.509
1251.500	709.361	79.997	19.995	100.029	20.160	2.525	0.513
1252.000	709.643	79.996	19.995	100.037	20.161	2.479	0.513
1252.500	709.874	79.997	19.995	100.042	20.158	2.651	0.513
1253.000	710.162	79.998	19.996	100.045	20.156	2.825	0.516
1253.500	710.386	79.998	19.995	100.045	20.160	2.519	0.516
1254.000	710.670	79.997	19.996	100.041	20.161	2.459	0.511
1254.500	710.917	79.997	19.995	100.035	20.161	2.425	0.519
1255.000	711.183	79.996	19.996	100.028	20.163	2.320	0.522
1255.500	711.423	79.996	19.996	100.023	20.162	2.396	0.509
1256.000	711.699	79.997	19.996	100.019	20.162	2.415	0.511
1256.500	711.956	79.998	19.996	100.018	20.163	2.303	0.524
1257.000	712.206	79.997	19.996	100.018	20.161	2.463	0.520
1257.500	712.460	79.998	19.996	100.023	20.160	2.551	0.506
1258.000	712.712	79.996	19.996	100.029	20.159	2.616	0.506
1258.500	712.968	79.997	19.995	100.031	20.161	2.457	0.507
1259.000	713.230	79.997	19.995	100.035	20.160	2.515	0.512
1259.500	713.469	79.997	19.996	100.036	20.161	2.480	0.510
1260.000	713.739	79.997	19.995	100.035	20.164	2.281	0.506
1260.500	713.958	79.996	19.995	100.035	20.161	2.438	0.499
1261.000	714.231	79.996	19.995	100.033	20.158	2.681	0.490
1261.500	714.475	79.997	19.996	100.031	20.158	2.643	0.504
1262.000	714.720	79.996	19.995	100.032	20.160	2.529	0.503
1262.500	714.994	79.995	19.995	100.030	20.160	2.506	0.505
1263.000	715.282	79.997	19.996	100.024	20.161	2.483	0.541
1263.500	715.467	79.994	19.997	100.020	20.158	2.669	0.517
1264.000	715.766	79.995	19.996	100.018	20.160	2.535	0.478
1264.500	715.986	79.993	19.996	100.013	20.157	2.751	0.502
1265.000	716.260	79.995	19.996	100.011	20.157	2.766	0.506
1265.500	716.503	79.996	19.996	100.011	20.160	2.517	0.506
1266.000	716.784	79.994	19.997	100.011	20.162	2.414	0.521
1266.500	717.009	79.995	19.995	100.013	20.161	2.424	0.515
1267.000	717.238	79.994	19.996	100.016	20.158	2.638	0.480
1267.500	717.507	79.995	19.996	100.015	20.158	2.665	0.476
1268.000	717.748	79.994	19.996	100.015	20.159	2.577	0.504
1268.500	718.013	79.995	19.996	100.017	20.158	2.701	0.508
1269.000	718.270	79.995	19.996	100.015	20.159	2.569	0.514
1269.500	718.530	79.994	19.996	100.012	20.162	2.382	0.520
1270.000	718.773	79.995	19.996	100.013	20.160	2.561	0.510
1270.500	718.998	79.995	19.996	100.013	20.156	2.800	0.485
1271.000	719.305	79.994	19.996	100.012	20.160	2.494	0.500
1271.500	719.502	79.993	19.996	100.016	20.160	2.555	0.518
1272.000	719.792	79.995	19.996	100.020	20.160	2.532	0.496
1272.500	720.030	79.995	19.996	100.027	20.160	2.548	0.508
1273.000	720.272	79.995	19.995	100.034	20.161	2.469	0.504
1273.500	720.532	79.994	19.996	100.040	20.162	2.412	0.491
1274.000	720.788	79.994	19.997	100.040	20.159	2.565	0.508
1274.500	721.060	79.996	19.995	100.041	20.160	2.511	0.522
1275.000	721.322	79.994	19.996	100.040	20.161	2.450	0.531
1275.500	721.521	79.996	19.996	100.033	20.160	2.548	0.498
1276.000	721.780	79.995	19.997	100.029	20.161	2.429	0.459
1276.500	722.039	79.994	19.997	100.032	20.163	2.343	0.488
1277.000	722.286	79.994	19.996	100.036	20.162	2.389	0.512
1277.500	722.523	79.995	19.997	100.038	20.162	2.356	0.496
1278.000	722.774	79.995	19.996	100.041	20.161	2.473	0.486
1278.500	723.041	79.994	19.996	100.043	20.160	2.521	0.503
1279.000	723.275	79.994	19.996	100.043	20.162	2.385	0.509
1279.500	723.516	79.995	19.997	100.042	20.159	2.594	0.488
1280.000	723.810	79.995	19.996	100.039	20.156	2.779	0.505
1280.500	724.030	79.994	19.996	100.038	20.161	2.456	0.524
1281.000	724.290	79.994	19.997	100.037	20.162	2.397	0.497
1281.500	724.515	79.995	19.996	100.033	20.162	2.370	0.483
1282.000	724.757	79.995	19.997	100.031	20.161	2.479	0.476
1282.500	725.034	79.995	19.997	100.028	20.161	2.449	0.493
1283.000	725.283	79.995	19.996	100.026	20.162	2.385	0.523
1283.500	725.498	79.995	19.996	100.024	20.161	2.452	0.495
1284.000	725.775	79.994	19.996	100.024	20.158	2.636	0.477
1284.500	726.055	79.994	19.996	100.019	20.159	2.626	0.524
1285.000	726.272	79.995	19.997	100.019	20.159	2.599	0.527
1285.500	726.522	79.994	19.996	100.024	20.159	2.601	0.482
1286.000	726.752	79.994	19.996	100.024	20.159	2.611	0.474
1286.500	727.024	79.994	19.996	100.024	20.160	2.498	0.491
1287.000	727.278	79.995	19.997	100.025	20.158	2.691	0.514
1287.500	727.543	79.995	19.997	100.023	20.161	2.473	0.523
1288.000	727.781	79.994	19.996	100.021	20.156	2.796	0.511
1288.500	727.988	79.995	19.997	100.023	20.157	2.760	0.474
1289.000	728.243	79.993	19.996	100.027	20.158	2.645	0.453
1289.500	728.480	79.994	19.997	100.027	20.158	2.674	0.476
1290.000	728.752	79.995	19.996	100.027	20.156	2.791	0.500
1290.500	729.006	79.994	19.998	100.028	20.155	2.845	0.518
1291.000	729.238	79.993	19.996	100.029	20.156	2.774	0.506
1291.500	729.482	79.995	19.997	100.031	20.159	2.590	0.481
1292.000	729.751	79.995	19.997	100.036	20.159	2.584	0.494
1292.500	729.975	79.994	19.995	100.041	20.156	2.829	0.503
1293.000	730.234	79.995	19.997	100.045	20.157	2.737	0.488
1293.500	730.465	79.993	19.997	100.046	20.156	2.806	0.486
1294.000	730.723	79.993	19.997	100.043	20.159	2.611	0.490
1294.500	730.949	79.994	19.996	100.037	20.160	2.554	0.487
1295.000	731.235	79.994	19.997	100.034	20.159	2.592	0.498
1295.500	731.492	79.995	19.995	100.033	20.158	2.643	0.528
1296.000	731.742	79.993	19.996	100.030	20.158	2.634	0.525
1296.500	731.955	79.994	19.995	100.031	20.155	2.907	0.485
1297.000	732.189	79.993	19.996	100.036	20.161	2.443	0.455
1297.500	732.466	79.994	19.996	100.036	20.161	2.467	0.479
1298.000	732.703	79.993	19.996	100.031	20.158	2.668	0.512
1298.500	732.928	79.995	19.997	100.031	20.161	2.492	0.488
1299.000	733.183	79.995	19.995	100.029	20.158	2.659	0.471
1299.500	733.430	79.994	19.996	100.029	20.158	2.664	0.491
1300.000	733.682	79.993	19.995	100.032	20.160	2.561	0.500
1300.500	733.967	79.993	19.996	100.036	20.160	2.557	0.518
1301.000	734.172	79.993	19.995	100.039	20.159	2.607	0.514
1301.500	734.436	79.994	19.994	100.041	20.159	2.594	0.480
1302.000	734.687	79.994	19.995	100.042	20.159	2.577	0.492
1302.500	734.920	79.994	19.995	100.044	20.158	2.636	0.499
1303.000	735.164	79.995	19.995	100.042	20.158	2.649	0.481
1303.500	735.410	79.993	19.996	100.042	20.160	2.515	0.484
1304.000	735.659	79.995	19.995	100.039	20.159	2.619	0.493
1304.500	735.914	79.995	19.995	100.038	20.162	2.401	0.499
1305.000	736.130	79.996	19.997	100.034	20.160	2.498	0.487
1305.500	736.405	79.995	19.995	100.035	20.161	2.456	0.481
1306.000	736.646	79.995	19.995	100.032	20.158	2.701	0.503
1306.500	736.939	79.995	19.995	100.030	20.162	2.399	0.525
1307.000	737.155	79.996	19.992	100.029	20.159	2.617	0.522
1307.500	737.407	79.997	19.994	100.034	20.160	2.542	0.489
1308.000	737.619	79.996	19.995	100.033	20.161	2.469	0.466
1308.500	737.904	79.994	19.994	100.032	20.157	2.710	0.480
1309.000	738.170	79.997	19.993	100.034	20.159	2.607	0.524
1309.500	738.434	79.997	19.995	100.034	20.160	2.527	0.541
1310.000	738.692	79.996	19.994	100.030	20.161	2.488	0.526
1310.500	738.940	79.997	19.995	100.030	20.158	2.659	0.514
1311.000	739.165	79.997	19.996	100.032	20.157	2.741	0.490
1311.500	739.436	79.997	19.994	100.034	20.158	2.701	0.485
1312.000	739.709	79.996	19.996	100.033	20.159	2.615	0.520
1312.500	739.970	79.996	19.996	100.037	20.156	2.783	0.539
1313.000	740.193	79.996	19.995	100.040	20.159	2.611	0.509
1313.500	740.444	79.996	19.995	100.043	20.159	2.569	0.478
1314.000	740.697	79.996	19.996	100.042	20.159	2.624	0.489
1314.500	740.979	79.996	19.996	100.040	20.157	2.762	0.519
1315.000	741.225	79.997	19.996	100.035	20.158	2.701	0.532
1315.500	741.475	79.995	19.995	100.035	20.157	2.760	0.512
1316.000	741.720	79.995	19.996	100.033	20.156	2.818	0.496
1316.500	741.999	79.995	19.996	100.035	20.157	2.739	0.509
1317.000	742.213	79.995	19.995	100.041	20.155	2.887	0.508
1317.500	742.525	79.995	19.995	100.044	20.158	2.669	0.509
1318.000	742.742	79.993	19.996	100.038	20.158	2.680	0.527
1318.500	743.029	79.995	19.996	100.034	20.157	2.722	0.517
1319.000	743.254	79.996	19.996	100.029	20.158	2.649	0.508
1319.500	743.521	79.995	19.995	100.027	20.157	2.750	0.502
