Sample ID:	C:\MCC\MCC Cal\Test\PUF_30_2.txt
Sample Weight (mg):	3.27
Heating Rate (C/s):	0.5
Combustor Temp (C):	900
N2 Flow Rate (cc/min):	80
O2 Flow Rate (cc/min):	20
Calibration File:	C:\MCC\MCC Cal\Coeff1 JN10440_30_210304.txt.txt
T Correction Coefficients:	0	1.024463	0
Time Shift (s):	14
*
Time (s)	Temperature (C)	N2 flow rate (cc/min)	O2 flow rate (cc/min)	Flow Rate (cc/min)	Oxygen (%)	HRR (W/g)	Heating rate (C/s)
0.000	109.095	80.002	19.997	99.648	20.151	-0.607	0.012
0.500	109.110	80.004	19.998	99.647	20.143	0.115	0.010
1.000	109.141	79.997	19.996	99.648	20.144	0.047	0.029
1.500	109.100	79.999	19.996	99.647	20.146	-0.188	0.018
2.000	109.108	80.001	19.997	99.647	20.143	0.143	-0.022
2.500	109.108	80.002	19.996	99.646	20.144	0.086	-0.012
3.000	109.076	80.004	19.995	99.647	20.142	0.258	-0.012
3.500	109.077	80.005	19.995	99.647	20.141	0.346	-0.031
4.000	109.038	80.005	19.996	99.648	20.137	0.677	-0.034
4.500	109.080	80.005	19.997	99.649	20.141	0.307	-0.018
5.000	109.091	80.005	19.996	99.651	20.146	-0.151	0.028
5.500	109.068	80.004	19.994	99.653	20.146	-0.185	0.021
6.000	109.051	80.005	19.997	99.656	20.147	-0.271	-0.026
6.500	109.040	80.006	19.998	99.659	20.147	-0.284	-0.034
7.000	109.086	80.005	19.995	99.659	20.140	0.438	0.003
7.500	109.091	80.004	19.997	99.658	20.142	0.258	0.043
8.000	109.072	80.005	19.997	99.656	20.142	0.276	0.019
8.500	109.057	80.007	19.999	99.655	20.139	0.565	-0.024
9.000	109.065	80.005	19.996	99.654	20.140	0.422	-0.021
9.500	109.069	80.005	19.999	99.659	20.134	0.998	0.002
10.000	109.045	80.006	19.999	99.666	20.138	0.607	-0.004
10.500	109.053	80.003	19.998	99.673	20.139	0.558	-0.017
11.000	109.035	80.004	19.998	99.675	20.137	0.722	-0.013
11.500	109.079	80.004	19.996	99.684	20.143	0.167	0.007
12.000	109.089	80.004	19.998	99.690	20.139	0.503	0.039
12.500	109.081	80.005	20.000	99.695	20.141	0.326	0.028
13.000	109.076	80.004	19.999	99.698	20.140	0.464	-0.005
13.500	109.092	80.005	19.999	99.700	20.135	0.943	-0.001
14.000	109.117	80.005	20.001	99.701	20.137	0.730	0.026
14.500	109.074	80.005	19.999	99.701	20.138	0.628	0.011
15.000	109.111	80.003	19.998	99.697	20.136	0.792	-0.012
15.500	109.127	80.004	19.999	99.695	20.139	0.558	0.024
16.000	109.088	80.005	19.998	99.699	20.140	0.427	0.015
16.500	109.115	80.005	19.999	99.700	20.141	0.373	-0.018
17.000	109.113	80.003	19.998	99.703	20.130	1.363	0.006
17.500	109.144	80.003	19.998	99.711	20.131	1.304	0.027
18.000	109.141	80.004	19.997	99.718	20.128	1.609	0.029
18.500	109.138	80.003	19.996	99.721	20.131	1.327	0.011
19.000	109.162	80.005	19.997	99.725	20.128	1.609	0.007
19.500	109.188	80.003	19.997	99.731	20.126	1.760	0.035
20.000	109.211	80.006	19.997	99.736	20.131	1.262	0.049
20.500	109.194	80.004	19.998	99.738	20.128	1.593	0.027
21.000	109.191	80.003	19.995	99.744	20.129	1.481	-0.007
21.500	109.268	80.004	19.997	99.750	20.135	0.920	0.027
22.000	109.299	80.003	19.995	99.752	20.128	1.536	0.091
22.500	109.300	80.004	19.996	99.754	20.128	1.585	0.070
23.000	109.302	80.004	19.996	99.758	20.128	1.570	0.018
23.500	109.349	80.003	19.996	99.760	20.122	2.164	0.026
24.000	109.372	80.004	19.997	99.758	20.131	1.251	0.060
24.500	109.376	80.004	19.996	99.755	20.134	0.980	0.048
25.000	109.404	80.004	19.995	99.754	20.127	1.627	0.029
25.500	109.447	80.004	19.998	99.755	20.123	2.065	0.051
26.000	109.453	80.003	19.996	99.755	20.123	2.064	0.060
26.500	109.490	80.006	19.998	99.762	20.123	2.036	0.046
27.000	109.546	80.003	19.995	99.771	20.128	1.543	0.068
27.500	109.538	80.005	19.995	99.780	20.123	2.033	0.071
28.000	109.589	80.004	19.997	99.788	20.128	1.613	0.045
28.500	109.631	80.006	19.996	99.796	20.122	2.111	0.068
29.000	109.646	80.007	19.997	99.799	20.122	2.116	0.075
29.500	109.671	80.005	19.996	99.799	20.122	2.151	0.048
30.000	109.709	80.007	19.996	99.795	20.120	2.297	0.051
30.500	109.771	80.008	19.997	99.794	20.120	2.365	0.082
31.000	109.799	80.003	19.994	99.794	20.120	2.302	0.095
31.500	109.816	80.005	19.995	99.793	20.120	2.305	0.067
32.000	109.900	80.004	19.996	99.795	20.118	2.519	0.073
32.499	109.892	80.006	19.996	99.800	20.111	3.173	0.089
32.999	109.954	80.004	19.997	99.800	20.121	2.258	0.065
33.499	110.014	80.006	19.995	99.800	20.114	2.871	0.088
33.999	110.068	80.007	19.997	99.801	20.118	2.540	0.118
34.500	110.088	80.008	19.997	99.800	20.109	3.390	0.094
35.000	110.134	80.008	19.995	99.800	20.121	2.242	0.070
35.499	110.240	80.007	19.996	99.795	20.121	2.235	0.109
35.999	110.289	80.008	19.994	99.790	20.121	2.282	0.153
36.500	110.352	80.008	19.995	99.782	20.115	2.762	0.134
37.000	110.355	80.007	19.993	99.774	20.119	2.441	0.089
37.500	110.433	80.007	19.995	99.768	20.119	2.436	0.073
38.000	110.459	80.009	19.995	99.765	20.122	2.139	0.093
38.500	110.530	80.009	19.996	99.764	20.117	2.600	0.101
39.000	110.581	80.008	19.996	99.764	20.121	2.199	0.109
39.499	110.657	80.007	19.996	99.765	20.115	2.853	0.124
39.999	110.672	80.008	19.996	99.769	20.117	2.598	0.109
40.499	110.740	80.009	19.996	99.777	20.116	2.747	0.087
40.999	110.806	80.008	19.996	99.785	20.123	2.042	0.109
41.500	110.886	80.007	19.997	99.792	20.124	1.995	0.140
42.000	110.931	80.008	19.997	99.796	20.120	2.316	0.136
42.499	110.966	80.007	19.995	99.798	20.122	2.162	0.102
42.999	111.061	80.006	19.996	99.799	20.122	2.178	0.105
43.499	111.114	80.003	19.995	99.799	20.120	2.371	0.140
43.999	111.175	80.005	19.994	99.799	20.115	2.770	0.131
44.499	111.239	80.003	19.996	99.802	20.120	2.298	0.119
44.999	111.303	79.996	19.996	99.802	20.122	2.108	0.126
45.499	111.364	80.001	19.994	99.802	20.117	2.596	0.126
45.999	111.425	80.002	19.995	99.803	20.121	2.236	0.123
46.499	111.499	80.005	19.995	99.807	20.117	2.593	0.128
46.999	111.552	80.007	19.996	99.810	20.120	2.324	0.131
47.500	111.605	80.006	19.996	99.816	20.115	2.804	0.117
48.000	111.729	80.005	19.995	99.823	20.114	2.943	0.142
48.500	111.796	80.005	19.994	99.829	20.113	2.974	0.184
49.000	111.840	80.006	19.996	99.832	20.112	3.128	0.151
49.499	111.954	80.007	19.995	99.836	20.108	3.480	0.135
50.000	112.021	80.007	19.996	99.838	20.114	2.880	0.170
50.500	112.115	80.006	19.995	99.839	20.115	2.765	0.171
50.999	112.222	80.007	19.994	99.840	20.110	3.277	0.181
51.499	112.289	80.006	19.996	99.841	20.112	3.105	0.188
51.999	112.391	80.006	19.995	99.842	20.113	2.959	0.172
52.499	112.468	80.007	19.996	99.843	20.108	3.520	0.174
52.999	112.528	80.006	19.996	99.843	20.112	3.126	0.158
53.500	112.625	80.005	19.996	99.843	20.110	3.293	0.147
54.000	112.719	80.008	19.995	99.843	20.114	2.917	0.174
54.499	112.818	80.007	19.994	99.843	20.109	3.340	0.192
54.999	112.912	80.008	19.996	99.842	20.113	2.977	0.193
55.499	112.967	80.008	19.997	99.842	20.110	3.311	0.171
55.999	113.093	80.009	19.995	99.846	20.115	2.810	0.165
56.499	113.194	80.008	19.994	99.849	20.109	3.397	0.204
56.999	113.319	80.008	19.996	99.850	20.111	3.194	0.226
57.499	113.423	80.008	19.996	99.851	20.110	3.322	0.228
57.999	113.534	80.008	19.995	99.854	20.110	3.254	0.222
58.499	113.605	80.010	19.994	99.855	20.106	3.648	0.198
58.999	113.734	80.008	19.996	99.854	20.105	3.797	0.190
59.499	113.834	80.009	19.995	99.853	20.104	3.865	0.214
59.999	113.954	80.009	19.997	99.853	20.102	4.039	0.225
60.500	114.070	80.008	19.996	99.855	20.105	3.805	0.228
61.000	114.195	80.008	19.994	99.854	20.105	3.763	0.238
61.499	114.256	80.008	19.994	99.859	20.104	3.883	0.213
61.999	114.357	80.009	19.993	99.866	20.108	3.455	0.174
62.499	114.502	80.007	19.994	99.873	20.099	4.298	0.204
62.999	114.600	80.008	19.994	99.876	20.103	3.987	0.244
63.499	114.698	80.007	19.994	99.880	20.100	4.267	0.219
63.999	114.811	80.008	19.994	99.881	20.103	3.909	0.204
64.499	114.936	80.007	19.995	99.881	20.103	3.922	0.225
64.999	115.063	80.008	19.995	99.882	20.098	4.410	0.245
65.499	115.162	80.008	19.994	99.882	20.101	4.191	0.239
65.999	115.286	80.009	19.995	99.882	20.098	4.421	0.225
66.499	115.437	80.007	19.993	99.882	20.096	4.619	0.249
66.999	115.555	80.009	19.993	99.882	20.101	4.134	0.272
67.499	115.674	80.007	19.993	99.882	20.100	4.194	0.253
67.999	115.848	80.008	19.994	99.882	20.104	3.826	0.265
68.499	115.913	80.008	19.993	99.883	20.097	4.536	0.266
68.999	116.100	80.007	19.994	99.882	20.101	4.155	0.246
69.500	116.233	80.005	19.994	99.883	20.095	4.709	0.286
70.000	116.301	80.006	19.994	99.883	20.095	4.680	0.260
70.499	116.494	80.006	19.994	99.884	20.099	4.364	0.231
70.999	116.639	80.001	19.995	99.883	20.097	4.560	0.300
71.499	116.774	80.002	19.994	99.882	20.099	4.356	0.309
71.999	116.897	80.002	19.995	99.882	20.100	4.223	0.269
72.499	116.999	79.997	19.994	99.882	20.094	4.805	0.241
72.999	117.139	79.998	19.995	99.882	20.090	5.223	0.234
73.499	117.273	79.999	19.994	99.882	20.097	4.501	0.258
73.999	117.426	79.997	19.993	99.884	20.095	4.696	0.281
74.499	117.545	80.005	19.994	99.885	20.091	5.057	0.280
75.000	117.670	80.003	19.994	99.887	20.092	4.994	0.258
75.501	117.809	80.006	19.995	99.888	20.095	4.715	0.254
76.000	117.989	80.005	19.996	99.892	20.093	4.890	0.291
76.500	118.065	80.006	19.995	99.895	20.094	4.845	0.287
77.000	118.253	80.006	19.994	99.897	20.090	5.198	0.260
77.500	118.385	80.005	19.994	99.897	20.092	5.051	0.292
78.000	118.551	80.006	19.996	99.900	20.097	4.511	0.309
78.499	118.696	80.005	19.997	99.898	20.095	4.751	0.305
78.999	118.823	80.005	19.997	99.900	20.091	5.059	0.291
79.500	119.006	80.004	19.996	99.905	20.093	4.895	0.291
80.000	119.142	80.007	19.996	99.911	20.091	5.072	0.315
80.499	119.317	80.006	19.995	99.914	20.091	5.101	0.315
80.999	119.441	80.004	19.998	99.916	20.090	5.163	0.305
81.499	119.622	80.005	19.995	99.913	20.091	5.077	0.302
81.999	119.758	80.006	19.997	99.909	20.092	5.020	0.311
82.500	119.927	80.005	19.995	99.909	20.092	4.976	0.311
83.000	120.072	80.006	19.996	99.910	20.094	4.851	0.309
83.499	120.242	80.006	19.997	99.912	20.094	4.796	0.315
83.999	120.433	80.006	19.995	99.918	20.089	5.337	0.338
84.500	120.586	80.005	19.995	99.925	20.093	4.932	0.353
85.001	120.721	80.005	19.995	99.927	20.089	5.329	0.316
85.501	120.969	80.006	19.995	99.928	20.096	4.648	0.335
85.999	121.078	80.007	19.996	99.928	20.095	4.736	0.370
86.499	121.216	80.006	19.994	99.929	20.092	5.044	0.302
86.999	121.425	80.007	19.996	99.929	20.087	5.464	0.297
87.500	121.589	80.005	19.995	99.927	20.090	5.195	0.360
88.000	121.745	80.007	19.997	99.926	20.091	5.075	0.347
88.500	121.929	80.005	19.996	99.926	20.091	5.111	0.330
89.000	122.140	80.006	19.997	99.924	20.088	5.407	0.367
89.500	122.334	80.008	19.996	99.921	20.091	5.114	0.400
90.000	122.504	80.006	19.996	99.921	20.087	5.503	0.384
90.500	122.663	80.008	19.996	99.921	20.089	5.261	0.346
91.000	122.816	80.005	19.996	99.920	20.089	5.317	0.321
91.499	123.017	80.005	19.995	99.919	20.089	5.296	0.333
91.999	123.193	80.007	19.996	99.919	20.091	5.056	0.365
92.499	123.418	80.006	19.995	99.921	20.092	5.015	0.389
93.000	123.565	80.005	19.995	99.929	20.085	5.670	0.386
93.500	123.778	80.006	19.995	99.934	20.092	5.033	0.366
93.999	123.960	80.005	19.995	99.940	20.087	5.455	0.378
94.500	124.127	80.006	19.994	99.943	20.087	5.447	0.372
95.001	124.336	80.005	19.995	99.946	20.087	5.507	0.363
95.501	124.530	80.006	19.996	99.946	20.093	4.875	0.389
96.001	124.734	80.006	19.998	99.949	20.086	5.541	0.400
96.501	124.941	80.004	19.999	99.946	20.087	5.514	0.404
97.001	125.106	80.003	19.997	99.946	20.091	5.144	0.392
97.500	125.345	80.006	19.999	99.940	20.086	5.608	0.388
97.999	125.474	80.005	20.000	99.935	20.087	5.441	0.386
98.499	125.675	80.006	20.000	99.930	20.084	5.738	0.349
98.999	125.907	80.003	19.998	99.928	20.088	5.388	0.381
99.499	126.097	80.005	20.001	99.925	20.090	5.237	0.427
99.999	126.281	80.006	20.000	99.928	20.088	5.367	0.398
100.500	126.477	80.006	19.998	99.930	20.084	5.782	0.377
101.000	126.669	80.005	19.997	99.932	20.084	5.779	0.384
101.499	126.891	80.005	19.997	99.940	20.083	5.855	0.401
101.999	127.087	80.006	19.999	99.953	20.088	5.370	0.416
102.499	127.331	80.003	19.999	99.963	20.089	5.312	0.429
102.999	127.498	80.005	20.000	99.967	20.089	5.323	0.425
103.499	127.730	80.005	20.000	99.972	20.091	5.145	0.405
103.999	127.914	80.005	20.001	99.971	20.087	5.451	0.408
104.499	128.133	80.005	19.998	99.967	20.089	5.256	0.410
104.999	128.372	80.003	19.999	99.960	20.090	5.240	0.431
105.499	128.527	80.005	19.999	99.957	20.086	5.536	0.426
105.999	128.719	80.003	19.999	99.953	20.086	5.569	0.371
106.499	128.948	80.006	20.000	99.950	20.086	5.561	0.384
106.999	129.190	80.004	19.998	99.944	20.089	5.313	0.446
107.499	129.384	80.003	19.998	99.942	20.085	5.686	0.454
107.999	129.639	80.005	19.998	99.941	20.084	5.766	0.442
108.499	129.818	80.006	19.999	99.936	20.081	6.009	0.441
108.999	130.022	80.005	19.996	99.933	20.088	5.386	0.409
109.499	130.237	80.005	19.997	99.931	20.081	6.039	0.401
109.999	130.478	80.005	19.998	99.925	20.085	5.702	0.437
110.499	130.662	80.005	19.997	99.921	20.088	5.415	0.440
110.999	130.889	80.006	19.999	99.920	20.084	5.804	0.418
111.499	131.170	80.007	19.995	99.919	20.083	5.890	0.460
111.999	131.343	80.006	19.998	99.919	20.084	5.743	0.481
112.499	131.534	80.006	19.996	99.919	20.084	5.777	0.409
112.999	131.800	80.007	19.997	99.919	20.080	6.148	0.411
113.499	132.008	80.007	19.995	99.920	20.084	5.725	0.466
113.999	132.206	80.008	19.996	99.922	20.083	5.832	0.440
114.499	132.402	80.008	19.997	99.924	20.081	6.075	0.400
114.999	132.634	80.007	19.996	99.929	20.079	6.225	0.411
115.499	132.864	80.008	19.997	99.936	20.088	5.405	0.445
115.999	133.127	80.009	19.995	99.941	20.082	5.959	0.478
116.499	133.333	80.008	19.997	99.948	20.079	6.267	0.481
116.999	133.567	80.008	19.996	99.946	20.078	6.314	0.454
117.499	133.825	80.008	19.995	99.941	20.085	5.651	0.466
117.999	134.048	80.007	19.995	99.935	20.081	6.084	0.487
118.500	134.265	80.006	19.994	99.928	20.085	5.650	0.460
119.000	134.476	80.007	19.995	99.922	20.082	5.919	0.434
119.499	134.700	80.007	19.994	99.922	20.082	5.922	0.432
119.999	134.931	80.007	19.995	99.927	20.084	5.794	0.445
120.499	135.195	80.008	19.994	99.934	20.082	5.924	0.475
120.999	135.376	80.007	19.995	99.938	20.084	5.796	0.470
121.499	135.634	80.007	19.994	99.942	20.083	5.851	0.442
121.999	135.901	80.007	19.994	99.941	20.082	5.965	0.482
122.499	136.103	80.006	19.995	99.936	20.082	5.970	0.497
122.999	136.322	80.008	19.996	99.929	20.082	5.916	0.445
123.499	136.536	80.006	19.994	99.925	20.083	5.843	0.427
123.999	136.802	80.006	19.995	99.921	20.084	5.752	0.457
124.499	137.023	80.007	19.995	99.925	20.082	5.955	0.483
124.999	137.275	80.007	19.994	99.933	20.081	6.018	0.480
125.499	137.510	80.006	19.994	99.937	20.084	5.806	0.480
125.999	137.744	80.007	19.995	99.942	20.083	5.824	0.478
126.499	137.960	80.007	19.995	99.944	20.085	5.701	0.459
126.999	138.181	80.006	19.994	99.949	20.085	5.683	0.444
127.499	138.424	80.009	19.995	99.947	20.080	6.124	0.451
127.999	138.670	80.005	19.996	99.950	20.080	6.176	0.476
128.500	138.906	80.007	19.995	99.948	20.084	5.806	0.485
129.000	139.146	80.007	19.995	99.950	20.083	5.902	0.479
129.500	139.350	80.007	19.996	99.946	20.084	5.725	0.460
130.000	139.608	80.006	19.995	99.945	20.084	5.767	0.453
130.500	139.868	80.006	19.995	99.940	20.083	5.895	0.490
131.000	140.125	80.007	19.994	99.939	20.084	5.744	0.517
131.500	140.360	80.008	19.996	99.936	20.082	5.979	0.505
132.000	140.590	80.006	19.996	99.934	20.082	5.947	0.479
132.500	140.840	80.007	19.997	99.932	20.082	5.989	0.473
133.000	141.052	80.006	19.996	99.930	20.084	5.793	0.471
133.500	141.305	80.006	19.995	99.928	20.086	5.593	0.463
134.000	141.574	80.006	19.996	99.929	20.081	6.081	0.494
134.500	141.831	80.007	19.995	99.932	20.081	6.034	0.524
135.000	142.055	80.006	19.995	99.935	20.081	6.039	0.503
135.500	142.308	80.007	19.996	99.936	20.077	6.396	0.479
136.000	142.563	80.008	19.995	99.936	20.083	5.905	0.493
136.500	142.808	80.008	19.995	99.934	20.081	6.041	0.504
137.000	143.047	80.008	19.996	99.929	20.081	6.099	0.492
137.500	143.300	80.008	19.995	99.923	20.084	5.731	0.487
138.000	143.562	80.007	19.995	99.923	20.082	5.932	0.503
138.500	143.752	80.008	19.994	99.922	20.082	5.955	0.484
139.000	144.045	80.008	19.995	99.922	20.083	5.903	0.468
139.500	144.282	80.008	19.995	99.922	20.084	5.743	0.507
140.000	144.539	80.007	19.996	99.924	20.083	5.832	0.512
140.500	144.823	80.007	19.996	99.928	20.085	5.673	0.517
141.000	145.066	80.009	19.994	99.932	20.080	6.111	0.534
141.500	145.293	80.008	19.995	99.934	20.083	5.837	0.498
142.000	145.552	80.008	19.993	99.935	20.079	6.231	0.478
142.500	145.799	80.007	19.994	99.935	20.079	6.268	0.496
143.000	146.043	80.007	19.995	99.932	20.082	5.920	0.499
143.500	146.282	80.007	19.996	99.932	20.082	5.993	0.487
144.000	146.571	80.008	19.998	99.937	20.083	5.837	0.505
144.500	146.796	80.009	19.997	99.940	20.083	5.868	0.521
145.000	147.033	80.008	19.997	99.939	20.080	6.100	0.488
145.500	147.316	80.006	19.995	99.937	20.082	5.949	0.491
146.000	147.571	80.006	19.996	99.934	20.082	5.913	0.529
146.500	147.822	80.007	19.998	99.929	20.085	5.685	0.522
147.000	148.081	80.006	19.998	99.930	20.083	5.837	0.508
147.500	148.297	80.007	19.998	99.933	20.085	5.709	0.493
148.000	148.584	80.007	19.997	99.935	20.079	6.247	0.489
148.500	148.797	80.007	19.997	99.936	20.086	5.605	0.502
149.000	149.075	80.006	19.997	99.934	20.085	5.714	0.495
149.500	149.331	80.005	19.998	99.930	20.085	5.717	0.512
150.000	149.583	80.006	19.998	99.927	20.084	5.761	0.521
150.500	149.829	80.005	19.997	99.925	20.081	6.036	0.503
151.000	150.097	80.006	19.999	99.923	20.086	5.621	0.507
151.500	150.335	80.007	19.999	99.922	20.085	5.707	0.510
152.000	150.601	80.006	19.998	99.922	20.088	5.360	0.504
152.500	150.852	80.006	19.999	99.921	20.083	5.851	0.510
153.000	151.099	80.006	19.996	99.921	20.082	5.924	0.508
153.500	151.318	80.007	19.997	99.920	20.084	5.733	0.482
154.000	151.630	80.006	19.996	99.919	20.086	5.573	0.498
154.500	151.848	80.006	19.995	99.918	20.085	5.709	0.530
155.000	152.133	80.006	19.995	99.918	20.089	5.296	0.517
155.500	152.374	80.007	19.996	99.918	20.083	5.881	0.514
156.000	152.655	80.005	19.995	99.919	20.084	5.764	0.523
156.500	152.881	80.006	19.996	99.919	20.085	5.698	0.514
157.000	153.111	80.005	19.996	99.919	20.086	5.609	0.482
157.500	153.366	80.005	19.995	99.919	20.081	6.071	0.471
158.000	153.590	80.007	19.996	99.919	20.085	5.636	0.482
158.500	153.859	80.003	19.996	99.919	20.081	6.071	0.486
159.000	154.140	80.005	19.995	99.919	20.085	5.638	0.522
159.500	154.370	80.006	19.995	99.920	20.089	5.288	0.531
160.000	154.623	80.006	19.997	99.920	20.086	5.539	0.497
160.500	154.901	80.005	19.996	99.921	20.086	5.552	0.507
161.000	155.158	80.005	19.996	99.924	20.086	5.620	0.533
161.500	155.390	80.006	19.998	99.931	20.083	5.852	0.512
162.000	155.683	80.004	19.997	99.937	20.084	5.750	0.507
162.500	155.935	80.005	19.997	99.939	20.084	5.774	0.535
163.000	156.176	80.005	19.998	99.939	20.090	5.168	0.519
163.500	156.464	80.005	19.999	99.937	20.089	5.330	0.511
164.000	156.698	80.004	20.000	99.929	20.085	5.704	0.526
164.500	156.952	80.003	19.999	99.923	20.085	5.688	0.505
165.000	157.224	80.005	19.999	99.921	20.088	5.343	0.507
165.500	157.501	80.006	19.998	99.920	20.087	5.466	0.537
166.000	157.738	80.005	19.999	99.919	20.087	5.456	0.532
166.500	157.979	80.005	19.998	99.916	20.087	5.453	0.496
167.000	158.253	80.006	19.998	99.915	20.085	5.714	0.497
167.500	158.507	80.006	19.998	99.915	20.090	5.239	0.522
168.000	158.781	80.006	19.998	99.914	20.087	5.464	0.528
168.500	159.048	80.005	19.996	99.913	20.087	5.468	0.534
169.000	159.253	80.006	19.996	99.915	20.085	5.625	0.506
169.500	159.522	80.006	19.997	99.913	20.085	5.666	0.473
170.000	159.732	80.006	19.996	99.911	20.083	5.828	0.477
170.500	159.989	80.006	19.995	99.912	20.087	5.439	0.473
171.000	160.271	80.007	19.997	99.914	20.086	5.567	0.503
171.500	160.531	80.005	19.997	99.916	20.086	5.551	0.540
172.000	160.802	80.006	19.997	99.918	20.086	5.531	0.536
172.500	161.047	80.005	19.996	99.917	20.087	5.515	0.524
173.000	161.298	80.005	19.996	99.916	20.087	5.508	0.506
173.500	161.572	80.006	19.997	99.915	20.087	5.505	0.510
174.000	161.829	80.004	19.996	99.915	20.091	5.113	0.528
174.500	162.049	80.005	19.995	99.915	20.089	5.291	0.504
175.000	162.322	80.005	19.996	99.918	20.085	5.696	0.485
175.499	162.549	80.003	19.997	99.919	20.089	5.320	0.497
175.999	162.785	80.005	19.996	99.918	20.088	5.348	0.482
176.499	163.065	80.006	19.997	99.917	20.084	5.750	0.490
176.999	163.333	80.005	19.996	99.917	20.083	5.841	0.532
177.500	163.580	80.005	19.996	99.917	20.081	6.031	0.531
178.000	163.853	80.006	19.996	99.917	20.085	5.637	0.518
178.499	164.119	80.006	19.997	99.918	20.088	5.376	0.530
178.999	164.399	80.006	19.996	99.919	20.085	5.669	0.543
179.500	164.649	80.005	19.997	99.914	20.089	5.257	0.538
180.000	164.909	80.005	19.996	99.907	20.086	5.557	0.520
180.500	165.177	80.004	19.994	99.900	20.089	5.278	0.519
181.000	165.385	80.003	19.997	99.896	20.087	5.495	0.502
181.499	165.675	80.005	19.996	99.893	20.090	5.160	0.487
181.999	165.927	80.006	19.997	99.898	20.087	5.478	0.520
182.499	166.211	80.005	19.996	99.905	20.090	5.228	0.539
182.999	166.487	80.004	19.995	99.910	20.086	5.577	0.548
183.499	166.671	80.005	19.997	99.913	20.089	5.264	0.510
183.999	166.951	80.004	19.995	99.915	20.088	5.379	0.462
184.500	167.209	80.005	19.995	99.914	20.092	5.014	0.501
185.000	167.470	80.003	19.993	99.914	20.091	5.118	0.529
185.500	167.710	80.005	19.994	99.914	20.084	5.734	0.510
186.000	167.980	80.004	19.996	99.913	20.086	5.590	0.505
186.500	168.257	80.004	19.995	99.912	20.090	5.230	0.528
187.000	168.481	80.005	19.995	99.907	20.086	5.571	0.524
187.500	168.750	80.006	19.994	99.899	20.091	5.070	0.497
187.999	169.018	80.004	19.995	99.898	20.086	5.555	0.515
188.500	169.244	80.005	19.998	99.897	20.088	5.407	0.515
189.000	169.495	80.004	19.998	99.894	20.087	5.459	0.485
189.499	169.711	80.004	19.999	99.900	20.088	5.362	0.472
190.000	170.024	80.004	19.999	99.908	20.087	5.456	0.498
190.500	170.230	80.005	19.999	99.912	20.088	5.430	0.524
190.999	170.502	80.004	19.999	99.913	20.088	5.415	0.498
191.500	170.774	80.005	19.997	99.917	20.089	5.321	0.511
192.000	171.033	80.005	19.997	99.913	20.084	5.775	0.538
192.500	171.273	80.004	19.998	99.908	20.092	5.041	0.515
193.000	171.522	80.005	19.999	99.905	20.089	5.303	0.494
193.500	171.781	80.006	19.999	99.900	20.085	5.702	0.498
194.000	172.005	80.006	19.999	99.896	20.089	5.324	0.495
194.500	172.305	80.006	19.999	99.899	20.093	4.904	0.503
195.000	172.513	80.006	19.997	99.903	20.089	5.298	0.516
195.500	172.798	80.007	19.998	99.902	20.095	4.687	0.500
195.999	173.103	80.006	19.997	99.904	20.094	4.857	0.541
196.499	173.338	80.006	19.997	99.901	20.091	5.055	0.565
196.999	173.617	80.008	19.997	99.895	20.092	4.956	0.527
197.499	173.835	80.007	19.997	99.887	20.094	4.812	0.506
197.999	174.066	80.007	19.996	99.884	20.090	5.206	0.473
198.499	174.329	80.007	19.997	99.881	20.088	5.383	0.471
198.999	174.577	80.008	19.997	99.882	20.090	5.175	0.503
199.499	174.834	80.008	19.996	99.882	20.086	5.595	0.508
199.999	175.057	80.006	19.997	99.882	20.088	5.428	0.492
200.499	175.324	80.007	19.995	99.882	20.090	5.240	0.485
200.999	175.617	80.005	19.997	99.882	20.087	5.477	0.525
201.499	175.831	80.007	19.997	99.882	20.086	5.616	0.533
201.999	176.072	80.006	19.996	99.882	20.090	5.224	0.481
202.499	176.322	80.006	19.997	99.882	20.085	5.631	0.473
202.999	176.570	80.006	19.994	99.882	20.084	5.788	0.494
203.499	176.835	80.004	19.996	99.883	20.088	5.349	0.505
203.999	177.070	80.007	19.997	99.888	20.085	5.631	0.506
204.499	177.338	80.007	19.997	99.889	20.085	5.649	0.502
204.999	177.571	80.005	19.997	99.890	20.087	5.503	0.502
205.499	177.812	80.006	19.996	99.891	20.088	5.417	0.487
205.999	178.107	80.007	19.996	99.892	20.087	5.514	0.504
206.499	178.350	80.006	19.996	99.891	20.086	5.561	0.537
206.999	178.601	80.005	19.997	99.891	20.084	5.746	0.516
207.499	178.833	80.006	19.996	99.890	20.087	5.493	0.489
208.000	179.109	80.006	19.996	99.890	20.090	5.222	0.496
208.500	179.351	80.006	19.995	99.888	20.088	5.391	0.513
208.999	179.642	80.006	19.996	99.884	20.091	5.122	0.526
209.499	179.841	80.004	19.995	99.883	20.087	5.519	0.512
209.999	180.138	80.005	19.997	99.884	20.084	5.733	0.493
210.500	180.402	80.006	19.996	99.884	20.085	5.623	0.528
211.000	180.629	80.008	19.997	99.884	20.091	5.089	0.526
211.500	180.864	80.008	19.996	99.885	20.090	5.222	0.476
212.000	181.092	80.005	19.996	99.885	20.092	5.050	0.463
212.499	181.379	80.007	19.995	99.884	20.087	5.514	0.489
212.999	181.591	80.006	19.994	99.885	20.085	5.663	0.507
213.499	181.830	80.005	19.995	99.884	20.084	5.778	0.475
213.999	182.090	80.006	19.996	99.884	20.091	5.055	0.475
214.499	182.368	80.007	19.995	99.883	20.090	5.201	0.519
214.999	182.581	80.007	19.994	99.883	20.091	5.143	0.514
215.499	182.855	80.007	19.995	99.882	20.090	5.174	0.489
215.999	183.059	80.007	19.995	99.882	20.091	5.099	0.483
216.499	183.322	80.008	19.995	99.885	20.088	5.422	0.472
216.999	183.542	80.007	19.995	99.887	20.087	5.511	0.474
217.499	183.796	80.008	19.994	99.888	20.087	5.480	0.478
217.999	184.067	80.008	19.995	99.889	20.088	5.401	0.500
218.500	184.284	80.007	19.995	99.891	20.087	5.467	0.507
219.000	184.546	80.008	19.995	99.887	20.088	5.347	0.484
219.499	184.805	80.009	19.995	99.885	20.089	5.263	0.500
219.999	185.058	80.009	19.996	99.885	20.089	5.284	0.517
220.499	185.347	80.009	19.995	99.884	20.088	5.344	0.527
220.999	185.572	80.010	19.995	99.883	20.090	5.169	0.528
221.499	185.839	80.007	19.994	99.885	20.087	5.521	0.502
221.999	186.106	80.008	19.996	99.887	20.085	5.707	0.513
222.500	186.361	80.009	19.997	99.889	20.090	5.195	0.528
223.000	186.617	80.009	19.997	99.890	20.090	5.200	0.517
223.500	186.862	80.008	19.997	99.891	20.089	5.268	0.506
224.000	187.103	80.009	19.995	99.890	20.084	5.790	0.494
224.500	187.354	80.008	19.996	99.889	20.088	5.383	0.490
225.000	187.640	80.008	19.997	99.886	20.089	5.328	0.514
225.499	187.871	80.007	19.995	99.883	20.087	5.480	0.527
226.000	188.093	80.009	19.996	99.881	20.092	5.000	0.485
226.500	188.344	80.007	19.996	99.880	20.088	5.341	0.462
226.999	188.565	80.008	19.996	99.879	20.088	5.383	0.472
227.500	188.843	80.006	19.996	99.879	20.088	5.430	0.486
228.000	189.061	80.007	19.996	99.879	20.086	5.589	0.498
228.499	189.359	80.007	19.995	99.879	20.085	5.701	0.506
228.999	189.612	80.005	19.995	99.879	20.089	5.260	0.533
229.499	189.855	80.007	19.995	99.878	20.089	5.279	0.523
229.999	190.118	80.006	19.996	99.879	20.091	5.117	0.501
230.499	190.316	80.004	19.997	99.879	20.086	5.579	0.484
230.999	190.617	80.004	19.994	99.879	20.086	5.600	0.480
231.499	190.852	80.005	19.995	99.878	20.087	5.493	0.517
231.999	191.098	80.004	19.995	99.878	20.089	5.315	0.508
232.499	191.314	80.005	19.997	99.878	20.086	5.568	0.472
232.999	191.547	80.005	19.996	99.878	20.085	5.628	0.456
233.500	191.863	80.004	19.997	99.878	20.087	5.516	0.499
234.000	192.075	80.007	19.996	99.879	20.086	5.576	0.538
234.500	192.309	80.005	19.994	99.880	20.084	5.746	0.487
235.000	192.565	80.007	19.996	99.880	20.087	5.466	0.468
235.500	192.807	80.005	19.996	99.880	20.087	5.482	0.494
236.000	193.055	80.005	19.995	99.879	20.089	5.268	0.494
236.500	193.308	80.005	19.995	99.880	20.086	5.534	0.496
237.000	193.574	80.006	19.995	99.879	20.086	5.581	0.510
237.500	193.831	80.005	19.995	99.879	20.085	5.665	0.521
238.000	194.046	80.006	19.996	99.880	20.087	5.446	0.497
238.500	194.283	80.006	19.995	99.880	20.083	5.853	0.461
239.000	194.550	80.005	19.996	99.881	20.086	5.615	0.478
239.500	194.773	80.006	19.995	99.880	20.088	5.380	0.497
240.000	195.019	80.006	19.997	99.879	20.083	5.849	0.480
240.499	195.288	80.006	19.994	99.879	20.086	5.578	0.492
240.999	195.478	80.006	19.996	99.878	20.087	5.502	0.487
241.499	195.724	80.005	19.996	99.878	20.088	5.354	0.447
241.999	195.994	80.004	19.997	99.879	20.085	5.673	0.476
242.499	196.266	80.005	19.995	99.880	20.084	5.769	0.530
242.999	196.481	80.004	19.996	99.879	20.086	5.560	0.515
243.499	196.758	80.007	19.995	99.880	20.085	5.623	0.489
243.999	196.971	80.007	19.996	99.881	20.084	5.811	0.491
244.499	197.243	80.005	19.995	99.881	20.085	5.683	0.487
244.999	197.492	80.006	19.997	99.881	20.086	5.547	0.503
245.499	197.715	80.005	19.995	99.880	20.085	5.684	0.497
245.999	197.985	80.005	19.995	99.877	20.087	5.458	0.483
246.499	198.260	80.005	19.995	99.873	20.084	5.745	0.519
246.999	198.474	80.006	19.995	99.873	20.084	5.741	0.517
247.499	198.712	80.006	19.996	99.873	20.083	5.817	0.470
247.999	198.963	80.004	19.995	99.874	20.088	5.425	0.471
248.499	199.213	80.005	19.995	99.878	20.082	5.978	0.495
248.999	199.439	80.005	19.996	99.881	20.080	6.160	0.488
249.499	199.693	80.005	19.996	99.879	20.083	5.887	0.478
249.999	199.937	80.005	19.996	99.874	20.079	6.208	0.489
250.499	200.176	80.005	19.997	99.867	20.081	6.063	0.491
250.999	200.411	80.005	19.997	99.867	20.078	6.335	0.479
251.499	200.671	80.004	19.996	99.866	20.083	5.893	0.485
251.999	200.931	80.006	19.995	99.865	20.080	6.156	0.508
252.499	201.166	80.005	19.995	99.871	20.078	6.297	0.508
252.999	201.353	80.005	19.994	99.877	20.078	6.318	0.459
253.499	201.624	80.006	19.995	99.876	20.078	6.294	0.440
253.999	201.887	80.005	19.995	99.877	20.078	6.343	0.496
254.500	202.153	80.005	19.995	99.880	20.078	6.328	0.532
255.000	202.394	80.007	19.995	99.879	20.077	6.474	0.518
255.500	202.646	80.006	19.994	99.879	20.077	6.447	0.500
255.999	202.891	80.005	19.993	99.867	20.078	6.351	0.494
256.500	203.107	80.000	19.994	99.844	20.076	6.518	0.479
257.000	203.349	80.001	19.995	99.825	20.075	6.646	0.460
257.500	203.627	80.002	19.994	99.812	20.075	6.641	0.489
258.000	203.843	80.006	19.995	99.805	20.080	6.116	0.507
258.500	204.095	80.005	19.997	99.811	20.077	6.458	0.481
259.000	204.333	80.004	19.994	99.829	20.077	6.414	0.479
259.500	204.618	80.003	19.994	99.872	20.078	6.354	0.506
260.000	204.858	80.005	19.996	99.911	20.080	6.182	0.524
260.500	205.097	80.004	19.995	99.926	20.077	6.404	0.502
261.000	205.352	80.005	19.993	99.934	20.082	5.989	0.486
261.500	205.594	80.004	19.996	99.940	20.078	6.299	0.496
262.000	205.798	80.004	19.996	99.916	20.076	6.534	0.472
262.500	206.048	80.005	19.997	99.890	20.074	6.704	0.450
263.000	206.319	80.003	19.994	99.884	20.075	6.639	0.487
263.500	206.574	80.005	19.996	99.884	20.078	6.351	0.524
264.000	206.788	80.003	19.995	99.884	20.073	6.824	0.498
264.500	207.054	80.005	19.995	99.884	20.076	6.516	0.475
265.000	207.306	80.005	19.996	99.880	20.077	6.398	0.499
265.500	207.538	80.005	19.996	99.878	20.075	6.607	0.501
266.000	207.811	80.005	19.996	99.877	20.073	6.769	0.494
266.500	208.027	80.007	19.996	99.876	20.074	6.751	0.497
267.000	208.284	80.006	19.995	99.877	20.071	6.998	0.481
267.500	208.547	80.006	19.996	99.879	20.073	6.777	0.496
268.000	208.788	80.004	19.995	99.882	20.068	7.270	0.511
268.500	209.014	80.006	19.997	99.881	20.070	7.089	0.485
269.000	209.240	80.005	19.995	99.882	20.076	6.536	0.460
269.500	209.564	80.006	19.994	99.882	20.071	7.031	0.501
270.000	209.800	80.005	19.995	99.882	20.070	7.060	0.555
270.500	210.042	80.005	19.995	99.882	20.067	7.373	0.519
271.000	210.286	80.006	19.994	99.883	20.067	7.373	0.483
271.500	210.564	80.007	19.995	99.883	20.069	7.185	0.504
272.000	210.775	80.005	19.994	99.883	20.063	7.743	0.505
272.500	211.033	80.005	19.994	99.884	20.070	7.117	0.479
273.000	211.311	80.005	19.994	99.884	20.068	7.320	0.502
273.500	211.519	80.006	19.995	99.884	20.063	7.737	0.511
274.000	211.792	80.005	19.995	99.884	20.066	7.495	0.484
274.500	212.012	80.006	19.996	99.885	20.066	7.451	0.487
275.000	212.257	80.007	19.998	99.885	20.066	7.491	0.479
275.500	212.494	80.006	19.998	99.885	20.071	7.014	0.473
276.000	212.748	80.006	19.998	99.885	20.071	7.034	0.486
276.500	212.991	80.006	19.998	99.884	20.066	7.473	0.494
277.000	213.250	80.005	19.997	99.884	20.066	7.472	0.500
277.500	213.480	80.006	19.997	99.882	20.065	7.600	0.496
278.000	213.710	80.006	19.997	99.883	20.066	7.449	0.474
278.500	213.966	80.008	19.994	99.882	20.065	7.574	0.473
279.000	214.259	80.005	19.996	99.882	20.061	7.942	0.518
279.500	214.465	80.006	19.995	99.877	20.066	7.525	0.524
280.000	214.682	80.006	19.995	99.871	20.062	7.885	0.461
280.500	214.955	80.006	19.995	99.868	20.059	8.099	0.456
281.000	215.218	80.006	19.994	99.864	20.062	7.849	0.513
281.500	215.441	80.007	19.994	99.863	20.059	8.193	0.511
282.000	215.693	80.005	19.994	99.865	20.060	8.076	0.481
282.500	215.941	79.997	19.994	99.865	20.059	8.149	0.488
283.000	216.208	79.993	19.998	99.859	20.059	8.141	0.508
283.500	216.446	79.992	19.996	99.855	20.060	8.016	0.510
284.000	216.685	79.990	19.996	99.849	20.062	7.853	0.491
284.500	216.876	79.986	19.994	99.849	20.062	7.822	0.454
285.000	217.169	79.987	19.995	99.855	20.061	7.975	0.457
285.500	217.420	79.988	19.995	99.862	20.057	8.299	0.514
286.000	217.635	79.989	19.995	99.868	20.058	8.268	0.505
286.500	217.899	79.988	19.996	99.874	20.059	8.145	0.473
287.000	218.157	79.987	19.994	99.875	20.059	8.130	0.500
287.500	218.394	79.987	19.994	99.873	20.056	8.472	0.508
288.000	218.670	79.987	19.994	99.866	20.054	8.653	0.504
288.500	218.903	79.987	19.994	99.862	20.059	8.185	0.511
289.000	219.140	79.987	19.993	99.864	20.059	8.154	0.490
289.500	219.443	79.987	19.992	99.864	20.057	8.379	0.505
290.000	219.646	79.987	19.993	99.866	20.052	8.822	0.523
290.500	219.918	79.987	19.993	99.874	20.053	8.723	0.490
291.000	220.144	79.984	19.992	99.879	20.054	8.655	0.487
291.500	220.395	79.986	19.993	99.879	20.053	8.708	0.488
292.000	220.640	79.987	19.994	99.879	20.053	8.726	0.487
292.500	220.893	79.989	19.994	99.879	20.053	8.713	0.497
293.000	221.139	79.988	19.993	99.879	20.054	8.627	0.498
293.500	221.408	79.987	19.993	99.879	20.052	8.840	0.507
294.000	221.660	79.988	19.993	99.880	20.051	8.919	0.519
294.500	221.910	79.989	19.993	99.876	20.048	9.161	0.512
295.000	222.121	79.987	19.993	99.871	20.047	9.328	0.481
295.500	222.366	79.989	19.993	99.866	20.045	9.516	0.458
296.000	222.635	79.988	19.993	99.861	20.044	9.594	0.485
296.500	222.887	79.989	19.993	99.859	20.047	9.297	0.518
297.000	223.161	79.988	19.994	99.862	20.048	9.240	0.524
297.500	223.392	79.990	19.993	99.867	20.042	9.731	0.515
298.000	223.653	79.988	19.994	99.872	20.040	9.941	0.498
298.500	223.926	79.989	19.994	99.877	20.044	9.622	0.513
299.000	224.125	79.989	19.993	99.878	20.039	10.032	0.503
299.500	224.389	79.987	19.994	99.879	20.039	10.095	0.468
300.000	224.620	79.988	19.995	99.881	20.040	9.980	0.479
300.500	224.898	79.990	19.994	99.880	20.035	10.447	0.502
301.000	225.156	79.991	19.994	99.880	20.038	10.168	0.522
301.500	225.430	79.988	19.993	99.880	20.038	10.116	0.534
302.000	225.687	79.990	19.994	99.881	20.036	10.340	0.532
302.500	225.919	79.989	19.995	99.881	20.035	10.441	0.510
303.000	226.152	79.990	19.992	99.881	20.035	10.444	0.476
303.500	226.450	79.989	19.993	99.881	20.034	10.519	0.498
304.000	226.684	79.989	19.993	99.881	20.033	10.581	0.532
304.500	226.926	79.991	19.994	99.880	20.031	10.850	0.504
305.000	227.174	79.990	19.993	99.879	20.031	10.769	0.483
305.500	227.438	79.988	19.994	99.877	20.031	10.845	0.501
306.000	227.714	79.989	19.995	99.876	20.033	10.649	0.526
306.500	227.925	79.989	19.993	99.876	20.028	11.082	0.514
307.000	228.215	79.987	19.994	99.877	20.028	11.135	0.494
307.500	228.466	79.990	19.994	99.877	20.029	11.025	0.521
308.000	228.739	79.988	19.994	99.880	20.023	11.563	0.532
308.500	228.947	79.988	19.995	99.889	20.025	11.385	0.503
309.000	229.200	79.988	19.994	99.896	20.025	11.380	0.471
309.500	229.472	79.986	19.992	99.897	20.022	11.628	0.493
310.000	229.672	79.986	19.994	99.898	20.027	11.226	0.499
310.500	229.984	79.986	19.993	99.902	20.023	11.583	0.492
311.000	230.199	79.986	19.995	99.900	20.022	11.709	0.520
311.500	230.478	79.986	19.994	99.896	20.018	12.011	0.511
312.000	230.706	79.985	19.994	99.898	20.016	12.262	0.500
312.500	231.017	79.984	19.994	99.899	20.021	11.803	0.523
313.000	231.229	79.986	19.994	99.895	20.019	11.996	0.531
313.500	231.446	79.985	19.995	99.892	20.014	12.390	0.476
314.000	231.699	79.986	19.995	99.890	20.016	12.278	0.449
314.500	231.964	79.985	19.994	99.887	20.014	12.432	0.494
315.000	232.179	79.986	19.994	99.885	20.016	12.254	0.499
315.500	232.457	79.986	19.995	99.885	20.011	12.730	0.487
316.000	232.722	79.986	19.993	99.884	20.013	12.569	0.518
316.500	232.983	79.985	19.994	99.883	20.012	12.591	0.535
317.000	233.242	79.986	19.994	99.883	20.013	12.576	0.523
317.500	233.484	79.985	19.993	99.883	20.011	12.762	0.511
318.000	233.737	79.987	19.994	99.883	20.008	13.037	0.499
318.500	233.991	79.986	19.994	99.883	20.007	13.062	0.501
319.000	234.263	79.986	19.993	99.884	20.003	13.477	0.516
319.500	234.489	79.985	19.995	99.883	20.004	13.421	0.512
320.000	234.711	79.986	19.994	99.883	20.003	13.455	0.473
320.500	235.009	79.988	19.994	99.883	20.002	13.556	0.484
321.000	235.227	79.985	19.995	99.883	19.997	14.068	0.518
321.500	235.485	79.985	19.995	99.883	19.999	13.849	0.496
322.000	235.773	79.986	19.995	99.883	19.995	14.273	0.511
322.500	236.003	79.986	19.994	99.883	19.994	14.372	0.532
323.000	236.252	79.986	19.995	99.884	19.994	14.330	0.499
323.500	236.513	79.988	19.993	99.883	19.994	14.342	0.495
324.000	236.756	79.984	19.993	99.885	19.992	14.562	0.507
324.500	237.026	79.987	19.995	99.885	19.992	14.580	0.509
325.000	237.281	79.987	19.995	99.885	19.992	14.563	0.519
325.500	237.472	79.988	19.994	99.885	19.990	14.720	0.486
326.000	237.740	79.985	19.994	99.887	19.988	14.926	0.452
326.500	237.967	79.986	19.993	99.893	19.984	15.256	0.477
327.000	238.288	79.987	19.993	99.900	19.985	15.213	0.521
327.500	238.542	79.986	19.993	99.908	19.987	14.973	0.562
328.000	238.776	79.985	19.994	99.916	19.985	15.174	0.531
328.500	238.982	79.986	19.994	99.921	19.980	15.709	0.464
329.000	239.271	79.986	19.994	99.921	19.977	15.988	0.467
329.500	239.535	79.985	19.995	99.919	19.979	15.771	0.524
330.000	239.754	79.986	19.994	99.913	19.976	16.027	0.518
330.500	240.040	79.986	19.995	99.910	19.973	16.298	0.494
331.000	240.310	79.987	19.993	99.905	19.974	16.236	0.531
331.500	240.550	79.986	19.994	99.903	19.972	16.408	0.533
332.001	240.790	79.987	19.993	99.903	19.970	16.583	0.495
332.500	241.070	79.987	19.994	99.909	19.970	16.619	0.500
333.000	241.297	79.986	19.995	99.912	19.969	16.736	0.514
333.500	241.554	79.985	19.994	99.914	19.970	16.650	0.495
334.000	241.817	79.987	19.994	99.911	19.967	16.937	0.502
334.500	242.047	79.986	19.995	99.907	19.960	17.561	0.507
335.000	242.311	79.985	19.993	99.907	19.960	17.592	0.494
335.500	242.574	79.986	19.994	99.906	19.961	17.493	0.511
336.000	242.818	79.987	19.994	99.902	19.957	17.889	0.517
336.500	243.066	79.986	19.994	99.899	19.960	17.558	0.499
337.000	243.312	79.986	19.994	99.898	19.958	17.784	0.493
337.500	243.563	79.987	19.994	99.891	19.955	18.098	0.496
338.000	243.829	79.986	19.995	99.884	19.950	18.555	0.507
338.500	244.042	79.986	19.995	99.884	19.949	18.661	0.498
339.000	244.292	79.986	19.995	99.884	19.946	18.953	0.471
339.500	244.556	79.985	19.997	99.883	19.943	19.167	0.489
340.000	244.836	79.986	19.996	99.882	19.945	18.995	0.529
340.500	245.046	79.986	19.996	99.882	19.940	19.471	0.516
341.000	245.360	79.985	19.995	99.882	19.943	19.195	0.507
341.500	245.566	79.985	19.995	99.881	19.939	19.561	0.522
342.000	245.825	79.987	19.996	99.881	19.938	19.725	0.493
342.500	246.075	79.985	19.996	99.881	19.933	20.142	0.487
343.000	246.319	79.986	19.996	99.880	19.931	20.347	0.502
343.500	246.588	79.986	19.996	99.879	19.926	20.858	0.504
344.000	246.823	79.985	19.995	99.879	19.924	21.027	0.509
344.500	247.064	79.984	19.995	99.879	19.925	20.889	0.490
345.000	247.347	79.986	19.994	99.878	19.923	21.120	0.500
345.500	247.573	79.986	19.995	99.879	19.922	21.165	0.517
346.000	247.831	79.987	19.994	99.880	19.917	21.660	0.497
346.500	248.057	79.986	19.994	99.881	19.915	21.895	0.484
347.000	248.362	79.987	19.995	99.888	19.915	21.905	0.507
347.500	248.624	79.986	19.993	99.895	19.913	22.015	0.549
348.000	248.870	79.984	19.994	99.902	19.913	22.105	0.538
348.500	249.155	79.986	19.993	99.907	19.907	22.662	0.520
349.000	249.419	79.985	19.995	99.909	19.904	22.935	0.540
349.500	249.666	79.987	19.994	99.904	19.900	23.259	0.530
350.000	249.896	79.987	19.994	99.902	19.905	22.813	0.494
350.500	250.189	79.986	19.994	99.900	19.900	23.334	0.500
351.000	250.397	79.988	19.995	99.903	19.896	23.647	0.512
351.500	250.682	79.988	19.994	99.906	19.890	24.239	0.497
352.000	250.903	79.986	19.995	99.912	19.890	24.232	0.499
352.500	251.130	79.988	19.994	99.914	19.887	24.588	0.477
353.000	251.411	79.987	19.994	99.912	19.889	24.372	0.478
353.500	251.658	79.989	19.995	99.909	19.879	25.351	0.518
354.000	251.883	79.989	19.996	99.904	19.880	25.250	0.500
354.500	252.137	79.988	19.995	99.901	19.881	25.115	0.476
355.000	252.420	79.988	19.996	99.896	19.874	25.786	0.508
355.500	252.682	79.987	19.995	99.897	19.874	25.765	0.541
356.000	252.935	79.989	19.995	99.894	19.871	26.068	0.530
356.500	253.149	79.990	19.994	99.894	19.865	26.672	0.490
357.000	253.402	79.987	19.994	99.891	19.867	26.435	0.467
357.500	253.661	79.986	19.995	99.890	19.867	26.446	0.490
358.000	253.924	79.988	19.995	99.888	19.859	27.247	0.517
358.500	254.146	79.988	19.994	99.890	19.855	27.605	0.504
359.000	254.374	79.988	19.995	99.896	19.853	27.760	0.467
359.500	254.664	79.987	19.995	99.901	19.847	28.373	0.483
360.000	254.922	79.988	19.994	99.908	19.845	28.537	0.533
360.500	255.152	79.988	19.994	99.909	19.847	28.345	0.519
361.000	255.410	79.989	19.994	99.910	19.843	28.792	0.488
361.500	255.651	79.987	19.994	99.908	19.838	29.187	0.493
362.000	255.898	79.986	19.994	99.906	19.836	29.459	0.493
362.500	256.173	79.987	19.993	99.904	19.834	29.604	0.505
363.000	256.378	79.989	19.994	99.909	19.831	29.923	0.501
363.500	256.648	79.987	19.995	99.912	19.824	30.578	0.478
364.000	256.902	79.986	19.995	99.913	19.822	30.732	0.499
364.500	257.125	79.988	19.995	99.914	19.821	30.881	0.500
365.000	257.388	79.987	19.994	99.917	19.813	31.586	0.482
365.500	257.626	79.985	19.994	99.912	19.812	31.661	0.494
366.000	257.884	79.987	19.995	99.910	19.808	32.050	0.499
366.500	258.130	79.987	19.994	99.911	19.802	32.631	0.500
367.000	258.382	79.988	19.995	99.910	19.800	32.825	0.501
367.500	258.613	79.986	19.995	99.907	19.795	33.305	0.490
368.000	258.860	79.987	19.993	99.908	19.789	33.875	0.481
368.500	259.127	79.988	19.996	99.909	19.787	34.060	0.496
369.000	259.401	79.988	19.996	99.909	19.782	34.522	0.528
369.500	259.645	79.989	19.995	99.911	19.780	34.766	0.530
370.000	259.910	79.987	19.995	99.914	19.778	34.947	0.514
370.500	260.160	79.988	19.994	99.923	19.774	35.347	0.512
371.000	260.428	79.986	19.994	99.931	19.772	35.517	0.516
371.500	260.663	79.986	19.995	99.935	19.762	36.477	0.510
372.000	260.897	79.987	19.994	99.936	19.762	36.464	0.486
372.500	261.163	79.987	19.993	99.937	19.758	36.873	0.485
373.000	261.381	79.988	19.994	99.932	19.755	37.138	0.493
373.500	261.626	79.989	19.993	99.926	19.755	37.124	0.474
374.000	261.870	79.989	19.994	99.927	19.749	37.680	0.476
374.500	262.131	79.988	19.994	99.927	19.743	38.283	0.497
375.000	262.384	79.988	19.993	99.927	19.737	38.852	0.509
375.500	262.659	79.989	19.994	99.927	19.732	39.298	0.521
376.000	262.898	79.987	19.995	99.930	19.728	39.723	0.521
376.500	263.136	79.990	19.995	99.925	19.730	39.515	0.495
377.000	263.377	79.988	19.995	99.926	19.722	40.317	0.478
377.500	263.654	79.989	19.993	99.929	19.718	40.642	0.498
378.000	263.884	79.991	19.994	99.934	19.712	41.253	0.512
378.500	264.126	79.989	19.994	99.933	19.709	41.558	0.490
379.000	264.386	79.989	19.994	99.933	19.705	41.905	0.487
379.500	264.637	79.987	19.994	99.933	19.700	42.373	0.506
380.000	264.888	79.989	19.995	99.933	19.694	42.935	0.506
380.500	265.126	79.991	19.994	99.930	19.690	43.387	0.495
381.000	265.349	79.990	19.994	99.932	19.687	43.648	0.475
381.500	265.651	79.988	19.995	99.935	19.684	43.915	0.493
382.000	265.838	79.988	19.995	99.934	19.676	44.688	0.507
382.500	266.103	79.990	19.993	99.939	19.675	44.823	0.470
383.000	266.345	79.992	19.994	99.952	19.669	45.323	0.480
383.500	266.577	79.990	19.994	99.957	19.661	46.091	0.490
384.000	266.891	79.991	19.993	99.962	19.662	46.045	0.510
384.500	267.144	79.990	19.994	99.967	19.658	46.356	0.557
385.000	267.388	79.989	19.992	99.958	19.653	46.840	0.532
385.500	267.622	79.988	19.993	99.943	19.647	47.433	0.487
386.000	267.861	79.987	19.993	99.937	19.644	47.749	0.476
386.500	268.149	79.988	19.994	99.936	19.639	48.206	0.500
387.000	268.372	79.989	19.994	99.935	19.631	49.018	0.519
387.500	268.622	79.988	19.994	99.942	19.628	49.299	0.492
388.000	268.894	79.987	19.994	99.949	19.624	49.689	0.498
388.500	269.133	79.987	19.995	99.953	19.615	50.536	0.516
389.000	269.403	79.988	19.993	99.954	19.614	50.626	0.509
389.500	269.635	79.986	19.994	99.958	19.605	51.517	0.506
390.000	269.859	79.987	19.993	99.959	19.604	51.613	0.479
390.500	270.134	79.985	19.995	99.960	19.600	51.984	0.478
391.000	270.407	79.986	19.993	99.961	19.590	52.863	0.523
391.500	270.678	79.985	19.994	99.961	19.585	53.349	0.546
392.000	270.922	79.987	19.993	99.962	19.581	53.781	0.530
392.500	271.160	79.987	19.997	99.962	19.575	54.340	0.498
393.000	271.434	79.988	19.996	99.961	19.572	54.653	0.497
393.500	271.668	79.988	19.995	99.959	19.566	55.149	0.510
394.000	271.921	79.987	19.994	99.957	19.560	55.751	0.498
394.500	272.172	79.986	19.995	99.958	19.557	56.038	0.496
395.000	272.473	79.987	19.994	99.959	19.548	56.899	0.528
395.500	272.694	79.987	19.993	99.960	19.546	57.135	0.537
396.000	272.954	79.985	19.995	99.963	19.544	57.260	0.501
396.500	273.191	79.987	19.994	99.967	19.538	57.897	0.488
397.000	273.449	79.987	19.995	99.969	19.530	58.611	0.496
397.500	273.651	79.985	19.994	99.973	19.526	58.960	0.478
398.000	273.945	79.986	19.995	99.978	19.519	59.683	0.478
398.500	274.220	79.986	19.994	99.982	19.518	59.770	0.532
399.000	274.444	79.988	19.996	99.988	19.508	60.673	0.534
399.500	274.717	79.988	19.994	99.994	19.508	60.742	0.499
400.000	274.959	79.986	19.993	99.997	19.505	60.998	0.506
400.500	275.210	79.987	19.994	99.997	19.500	61.473	0.504
401.000	275.472	79.986	19.992	100.001	19.494	62.047	0.502
401.500	275.710	79.987	19.994	100.000	19.488	62.602	0.507
402.000	275.972	79.987	19.995	99.999	19.488	62.658	0.500
402.500	276.194	79.987	19.993	99.998	19.480	63.420	0.492
403.000	276.446	79.986	19.996	99.995	19.478	63.598	0.479
403.500	276.736	79.987	19.994	99.987	19.468	64.561	0.508
404.000	276.932	79.987	19.994	99.981	19.468	64.516	0.514
404.500	277.203	79.988	19.994	99.980	19.466	64.743	0.476
405.000	277.449	79.988	19.995	99.982	19.459	65.437	0.492
405.500	277.711	79.987	19.991	99.995	19.457	65.543	0.513
406.000	277.964	79.986	19.993	100.012	19.449	66.334	0.512
406.500	278.189	79.988	19.994	100.022	19.446	66.628	0.496
407.000	278.449	79.987	19.995	100.022	19.438	67.429	0.481
407.500	278.694	79.987	19.993	100.016	19.435	67.711	0.495
408.000	278.955	79.987	19.994	100.000	19.430	68.194	0.505
408.500	279.213	79.986	19.994	99.984	19.423	68.807	0.513
409.000	279.474	79.987	19.994	99.974	19.418	69.325	0.519
409.500	279.718	79.988	19.993	99.972	19.415	69.569	0.512
410.000	279.955	79.988	19.993	99.971	19.411	69.953	0.493
410.500	280.214	79.986	19.994	99.973	19.407	70.344	0.489
411.000	280.482	79.988	19.994	99.976	19.403	70.731	0.512
411.500	280.700	79.988	19.994	99.981	19.400	71.076	0.507
412.000	280.916	79.988	19.993	99.984	19.394	71.578	0.460
412.500	281.157	79.988	19.994	99.989	19.393	71.690	0.445
413.000	281.462	79.986	19.996	99.992	19.391	71.925	0.502
413.500	281.732	79.986	19.994	99.994	19.384	72.557	0.561
414.000	281.979	79.987	19.994	99.995	19.381	72.817	0.546
414.500	282.241	79.987	19.994	99.993	19.378	73.158	0.513
415.000	282.511	79.986	19.993	99.993	19.374	73.482	0.520
415.500	282.730	79.986	19.994	99.993	19.368	74.049	0.510
416.000	282.983	79.987	19.995	99.991	19.369	74.000	0.481
416.500	283.258	79.988	19.993	99.989	19.363	74.601	0.500
417.000	283.522	79.985	19.994	99.993	19.363	74.598	0.534
417.500	283.790	79.986	19.994	99.994	19.362	74.675	0.535
418.000	284.017	79.988	19.994	99.997	19.359	74.912	0.513
418.500	284.259	79.986	19.994	100.001	19.359	74.917	0.482
419.000	284.521	79.985	19.995	100.004	19.355	75.349	0.486
419.500	284.782	79.989	19.994	100.006	19.351	75.732	0.514
420.000	284.993	79.988	19.995	100.014	19.351	75.740	0.497
420.500	285.286	79.985	19.996	100.017	19.347	76.073	0.487
421.000	285.498	79.987	19.994	100.016	19.348	75.993	0.504
421.500	285.781	79.986	19.994	100.015	19.345	76.267	0.500
422.000	286.006	79.987	19.995	100.011	19.344	76.380	0.502
422.500	286.271	79.986	19.993	100.004	19.345	76.261	0.499
423.000	286.523	79.985	19.995	100.004	19.338	76.976	0.503
423.500	286.732	79.985	19.993	100.005	19.338	76.924	0.489
424.000	287.020	79.989	19.994	100.004	19.338	76.922	0.479
424.500	287.275	79.986	19.995	100.003	19.339	76.819	0.520
425.000	287.524	79.986	19.996	100.002	19.341	76.683	0.523
425.500	287.764	79.985	19.996	100.000	19.337	77.026	0.497
426.000	288.031	79.987	19.994	100.000	19.340	76.755	0.498
426.500	288.283	79.985	19.995	100.000	19.339	76.802	0.513
427.000	288.512	79.986	19.994	100.001	19.337	77.007	0.500
427.500	288.796	79.986	19.996	100.001	19.341	76.595	0.497
428.000	289.032	79.986	19.995	100.001	19.344	76.300	0.516
428.500	289.305	79.987	19.995	100.006	19.351	75.692	0.514
429.000	289.533	79.985	19.993	100.012	19.350	75.780	0.505
429.500	289.773	79.987	19.996	100.016	19.350	75.748	0.485
430.000	290.028	79.988	19.995	100.017	19.353	75.515	0.482
430.500	290.314	79.987	19.994	100.015	19.360	74.862	0.518
431.000	290.542	79.985	19.994	100.009	19.359	74.946	0.528
431.500	290.845	79.987	19.995	100.003	19.355	75.317	0.523
432.000	291.100	79.987	19.994	99.998	19.362	74.597	0.544
432.500	291.365	79.986	19.995	99.996	19.364	74.411	0.539
433.000	291.601	79.988	19.996	99.997	19.369	73.904	0.511
433.500	291.845	79.986	19.994	99.996	19.371	73.727	0.491
434.000	292.078	79.988	19.994	99.995	19.379	72.949	0.478
434.500	292.350	79.988	19.995	99.995	19.380	72.925	0.491
435.000	292.613	79.989	19.995	99.993	19.388	72.111	0.520
435.500	292.865	79.988	19.995	99.991	19.390	71.961	0.525
436.000	293.120	79.988	19.994	99.988	19.396	71.396	0.511
436.500	293.368	79.989	19.995	99.985	19.402	70.823	0.505
437.000	293.606	79.990	19.995	99.979	19.409	70.131	0.495
437.500	293.866	79.988	19.995	99.973	19.414	69.648	0.492
438.000	294.126	79.988	19.993	99.968	19.420	69.065	0.509
438.500	294.412	79.990	19.993	99.965	19.427	68.437	0.533
439.000	294.653	79.988	19.995	99.962	19.435	67.679	0.536
439.500	294.936	79.987	19.995	99.962	19.439	67.269	0.525
440.000	295.165	79.989	19.995	99.961	19.446	66.572	0.518
440.500	295.448	79.987	19.996	99.961	19.455	65.713	0.512
441.000	295.655	79.988	19.995	99.959	19.459	65.324	0.501
441.500	295.930	79.989	19.996	99.959	19.471	64.163	0.487
442.000	296.178	79.989	19.995	99.956	19.478	63.533	0.503
442.500	296.396	79.988	19.995	99.950	19.488	62.627	0.494
443.000	296.671	79.987	19.996	99.944	19.496	61.878	0.479
443.500	296.885	79.989	19.995	99.936	19.504	61.093	0.491
444.000	297.246	79.989	19.995	99.931	19.510	60.514	0.532
444.500	297.441	79.987	19.994	99.933	19.521	59.473	0.565
445.000	297.681	79.988	19.995	99.936	19.530	58.599	0.495
445.500	297.954	79.988	19.995	99.942	19.544	57.252	0.474
446.000	298.163	79.987	19.996	99.950	19.557	56.028	0.498
446.500	298.474	79.986	19.995	99.956	19.563	55.467	0.501
447.000	298.744	79.988	19.996	99.959	19.573	54.479	0.551
447.500	298.972	79.987	19.996	99.964	19.572	54.554	0.540
448.000	299.271	79.987	19.996	99.965	19.570	54.767	0.513
448.500	299.483	79.986	19.995	99.965	19.583	53.518	0.519
449.000	299.747	79.987	19.994	99.964	19.584	53.433	0.493
449.500	300.075	79.989	19.994	99.962	19.598	52.062	0.534
450.000	300.272	79.988	19.995	99.961	19.611	50.871	0.558
450.500	300.543	79.987	19.995	99.942	19.617	50.321	0.497
451.000	300.791	79.986	19.995	99.922	19.609	51.073	0.494
451.500	301.080	79.987	19.994	99.918	19.613	50.676	0.528
452.000	301.310	79.985	19.993	99.918	19.618	50.183	0.528
452.500	301.535	79.988	19.994	99.919	19.623	49.747	0.487
453.000	301.827	79.986	19.995	99.941	19.631	48.987	0.486
453.500	302.067	79.988	19.993	99.972	19.635	48.575	0.525
454.000	302.309	79.987	19.994	100.010	19.636	48.475	0.508
454.500	302.551	79.985	19.994	100.030	19.636	48.437	0.483
455.000	302.805	79.986	19.995	100.036	19.644	47.734	0.490
455.500	303.073	79.988	19.996	100.035	19.644	47.674	0.508
456.000	303.357	79.987	19.995	100.024	19.646	47.539	0.537
456.500	303.597	79.987	19.995	99.990	19.648	47.345	0.538
457.000	303.768	79.988	19.995	99.968	19.652	46.945	0.468
457.500	304.057	79.988	19.994	99.955	19.656	46.574	0.436
458.000	304.311	79.988	19.994	99.944	19.654	46.783	0.501
458.500	304.604	79.989	19.994	99.938	19.658	46.410	0.545
459.000	304.828	79.988	19.993	99.930	19.656	46.533	0.532
459.500	305.040	79.988	19.991	99.924	19.659	46.313	0.477
460.000	305.321	79.988	19.993	99.922	19.663	45.869	0.465
460.500	305.568	79.990	19.995	99.920	19.663	45.910	0.510
461.000	305.850	79.989	19.994	99.920	19.666	45.563	0.529
461.500	306.055	79.989	19.992	99.920	19.672	45.072	0.508
462.000	306.360	79.988	19.993	99.920	19.672	45.046	0.498
462.500	306.588	79.988	19.993	99.920	19.675	44.742	0.522
463.000	306.890	79.989	19.993	99.921	19.681	44.198	0.532
463.500	307.127	79.991	19.993	99.921	19.679	44.399	0.534
464.000	307.356	79.989	19.993	99.921	19.684	43.874	0.502
464.500	307.630	79.989	19.994	99.921	19.687	43.641	0.484
465.000	307.884	79.989	19.994	99.921	19.688	43.484	0.515
465.500	308.174	79.987	19.993	99.921	19.694	42.909	0.536
466.000	308.442	79.989	19.993	99.921	19.694	42.892	0.551
466.500	308.694	79.989	19.995	99.921	19.699	42.486	0.539
467.000	308.935	79.990	19.991	99.921	19.701	42.227	0.507
467.500	309.171	79.989	19.992	99.914	19.704	41.993	0.485
468.000	309.436	79.988	19.992	99.908	19.707	41.714	0.489
468.500	309.659	79.988	19.994	99.908	19.712	41.198	0.494
469.000	309.931	79.988	19.993	99.908	19.713	41.097	0.491
469.500	310.216	79.986	19.992	99.907	19.723	40.200	0.526
470.000	310.467	79.987	19.994	99.914	19.731	39.371	0.546
470.500	310.712	79.986	19.994	99.918	19.736	38.899	0.516
471.000	310.942	79.987	19.995	99.912	19.743	38.246	0.486
471.500	311.228	79.986	19.995	99.904	19.749	37.688	0.496
472.000	311.475	79.989	19.994	99.904	19.751	37.459	0.524
472.500	311.723	79.986	19.996	99.899	19.760	36.643	0.514
473.000	311.997	79.987	19.995	99.893	19.765	36.184	0.509
473.500	312.239	79.987	19.995	99.891	19.773	35.423	0.518
474.000	312.533	79.987	19.993	99.892	19.778	34.888	0.526
474.500	312.792	79.985	19.995	99.888	19.787	34.045	0.545
475.000	313.050	79.988	19.993	99.887	19.796	33.181	0.535
475.500	313.296	79.988	19.993	99.892	19.798	33.032	0.510
476.000	313.499	79.988	19.995	99.895	19.806	32.223	0.477
476.500	313.778	79.985	19.994	99.894	19.815	31.409	0.466
477.000	314.060	79.985	19.994	99.896	19.817	31.200	0.521
477.500	314.296	79.987	19.994	99.900	19.825	30.431	0.539
478.000	314.550	79.987	19.995	99.897	19.831	29.878	0.504
478.500	314.807	79.985	19.993	99.900	19.837	29.304	0.500
479.000	315.094	79.986	19.993	99.906	19.839	29.079	0.527
479.500	315.301	79.986	19.995	99.908	19.848	28.266	0.519
480.000	315.587	79.988	19.993	99.910	19.854	27.666	0.494
480.500	315.820	79.985	19.995	99.913	19.862	26.943	0.506
481.000	316.053	79.987	19.995	99.910	19.866	26.548	0.493
481.500	316.360	79.988	19.994	99.911	19.869	26.293	0.503
482.000	316.579	79.987	19.995	99.910	19.879	25.285	0.533
482.500	316.810	79.987	19.994	99.904	19.883	24.931	0.488
483.000	317.092	79.987	19.995	99.899	19.891	24.195	0.482
483.500	317.363	79.985	19.993	99.894	19.894	23.869	0.533
484.000	317.616	79.987	19.995	99.887	19.896	23.692	0.538
484.500	317.847	79.987	19.994	99.882	19.902	23.119	0.504
485.000	318.129	79.988	19.996	99.882	19.907	22.654	0.498
485.500	318.375	79.989	19.995	99.882	19.912	22.130	0.521
486.000	318.637	79.988	19.994	99.882	19.910	22.325	0.518
486.500	318.933	79.987	19.995	99.882	19.919	21.502	0.533
487.000	319.165	79.987	19.995	99.881	19.927	20.734	0.543
487.500	319.415	79.990	19.995	99.880	19.927	20.679	0.505
488.000	319.624	79.987	19.995	99.879	19.928	20.608	0.471
488.500	319.926	79.987	19.995	99.875	19.930	20.454	0.485
489.000	320.171	79.988	19.996	99.873	19.938	19.717	0.529
489.500	320.403	79.990	19.994	99.874	19.938	19.691	0.511
490.000	320.696	79.985	19.996	99.873	19.941	19.425	0.501
490.500	320.939	79.987	19.994	99.874	19.945	18.979	0.531
491.000	321.188	79.987	19.994	99.878	19.948	18.752	0.514
491.500	321.466	79.986	19.994	99.877	19.947	18.812	0.509
492.000	321.677	79.989	19.994	99.873	19.950	18.543	0.508
492.500	321.913	79.986	19.992	99.874	19.953	18.223	0.468
493.000	322.198	79.987	19.994	99.870	19.954	18.113	0.485
493.500	322.416	79.986	19.994	99.866	19.956	17.941	0.512
494.000	322.667	79.988	19.994	99.862	19.957	17.863	0.485
494.500	322.955	79.988	19.995	99.864	19.962	17.342	0.504
495.000	323.194	79.988	19.995	99.864	19.965	17.120	0.534
495.500	323.440	79.989	19.994	99.867	19.963	17.293	0.506
496.000	323.718	79.985	19.995	99.866	19.971	16.518	0.504
496.500	323.937	79.988	19.995	99.868	19.968	16.841	0.510
497.000	324.197	79.986	19.994	99.864	19.968	16.782	0.487
497.500	324.455	79.987	19.994	99.861	19.972	16.456	0.499
498.000	324.676	79.987	19.995	99.856	19.973	16.382	0.499
498.500	324.944	79.986	19.994	99.855	19.978	15.860	0.484
499.000	325.177	79.986	19.993	99.852	19.975	16.181	0.495
499.500	325.409	79.986	19.995	99.849	19.978	15.869	0.483
500.000	325.693	79.987	19.995	99.845	19.977	15.910	0.490
500.500	325.928	79.987	19.994	99.843	19.975	16.135	0.517
501.000	326.183	79.986	19.995	99.842	19.977	15.911	0.504
501.500	326.440	79.984	19.996	99.842	19.981	15.590	0.501
502.000	326.709	79.986	19.994	99.843	19.983	15.391	0.519
502.500	326.928	79.985	19.994	99.844	19.983	15.357	0.507
503.000	327.204	79.983	19.994	99.845	19.986	15.111	0.492
503.500	327.450	79.985	19.995	99.845	19.983	15.386	0.509
504.000	327.662	79.985	19.994	99.845	19.986	15.112	0.490
504.500	327.886	79.985	19.994	99.844	19.984	15.310	0.447
505.000	328.170	79.987	19.995	99.846	19.987	15.007	0.471
505.500	328.382	79.984	19.994	99.850	19.990	14.756	0.502
506.000	328.703	79.984	19.994	99.851	19.987	15.001	0.514
506.500	328.939	79.984	19.995	99.852	19.991	14.667	0.545
507.000	329.158	79.986	19.995	99.852	19.994	14.340	0.507
507.500	329.427	79.984	19.993	99.852	19.992	14.504	0.472
508.000	329.640	79.983	19.994	99.854	19.992	14.532	0.485
508.500	329.929	79.986	19.995	99.859	19.992	14.575	0.492
509.000	330.145	79.985	19.996	99.866	19.994	14.324	0.503
509.500	330.417	79.985	19.995	99.883	19.994	14.316	0.496
510.000	330.668	79.985	19.994	99.863	19.995	14.286	0.506
510.500	330.908	79.986	19.994	99.839	19.991	14.589	0.507
511.000	331.135	79.986	19.994	99.822	19.991	14.623	0.479
511.500	331.387	79.986	19.994	99.810	19.994	14.302	0.473
512.000	331.644	79.987	19.995	99.795	19.997	14.086	0.494
512.500	331.922	79.986	19.996	99.840	19.994	14.371	0.522
513.000	332.168	79.987	19.996	99.904	19.999	13.896	0.529
513.500	332.376	79.987	19.996	99.938	19.996	14.184	0.489
514.000	332.662	79.988	19.994	99.952	20.001	13.718	0.474
514.500	332.918	79.987	19.995	99.958	19.997	14.060	0.518
515.000	333.154	79.987	19.994	99.939	19.995	14.228	0.517
515.500	333.398	79.988	19.993	99.900	19.995	14.257	0.486
516.000	333.711	79.988	19.995	99.886	19.995	14.269	0.519
516.500	333.978	79.987	19.994	99.881	19.995	14.269	0.568
517.000	334.202	79.988	19.993	99.880	19.994	14.321	0.535
517.500	334.476	79.990	19.993	99.880	19.997	14.078	0.494
518.000	334.689	79.990	19.993	99.874	20.000	13.770	0.493
518.500	334.938	79.988	19.994	99.871	19.999	13.826	0.474
519.000	335.180	79.988	19.994	99.865	19.995	14.258	0.476
519.500	335.443	79.988	19.992	99.858	19.998	13.981	0.498
520.000	335.693	79.988	19.993	99.851	19.998	13.909	0.509
520.500	335.966	79.988	19.993	99.849	19.997	14.023	0.518
521.000	336.253	79.989	19.994	99.845	19.996	14.187	0.541
521.500	336.417	79.987	19.993	99.844	19.995	14.239	0.506
522.000	336.710	79.986	19.994	99.844	19.996	14.144	0.454
522.500	336.949	79.986	19.995	99.844	19.997	14.058	0.495
523.000	337.195	79.985	19.993	99.845	19.994	14.312	0.508
523.500	337.453	79.988	19.995	99.850	19.993	14.421	0.494
524.000	337.693	79.988	19.994	99.854	19.993	14.434	0.501
524.500	337.922	79.987	19.995	99.855	19.991	14.655	0.484
525.000	338.195	79.986	19.994	99.863	19.995	14.253	0.485
525.500	338.406	79.988	19.995	99.870	19.992	14.534	0.493
526.000	338.666	79.986	19.996	99.872	19.993	14.404	0.478
526.500	338.948	79.988	19.994	99.877	19.992	14.573	0.507
527.000	339.207	79.988	19.996	99.884	19.990	14.690	0.542
527.500	339.430	79.987	19.996	99.885	19.987	15.018	0.511
528.000	339.676	79.987	19.997	99.885	19.993	14.385	0.476
528.500	339.965	79.988	19.994	99.882	19.989	14.791	0.502
529.000	340.162	79.986	19.994	99.879	19.990	14.758	0.511
529.500	340.409	79.986	19.994	99.874	19.990	14.755	0.465
530.000	340.681	79.986	19.994	99.867	19.988	14.891	0.481
530.500	340.904	79.988	19.993	99.858	19.985	15.190	0.507
531.000	341.183	79.987	19.994	99.853	19.985	15.192	0.498
531.500	341.417	79.986	19.993	99.847	19.989	14.789	0.507
532.000	341.690	79.986	19.995	99.843	19.983	15.398	0.510
532.500	341.912	79.988	19.994	99.843	19.984	15.334	0.501
533.000	342.174	79.986	19.995	99.850	19.981	15.567	0.490
533.500	342.450	79.987	19.994	99.854	19.980	15.631	0.511
534.000	342.672	79.987	19.995	99.856	19.978	15.861	0.518
534.500	342.949	79.987	19.994	99.857	19.978	15.892	0.499
535.000	343.185	79.986	19.995	99.857	19.978	15.875	0.506
535.500	343.420	79.986	19.995	99.851	19.979	15.790	0.492
536.000	343.669	79.987	19.996	99.848	19.976	16.066	0.477
536.500	343.879	79.987	19.996	99.846	19.974	16.260	0.471
537.000	344.141	79.986	19.996	99.844	19.974	16.195	0.465
537.500	344.422	79.987	19.996	99.840	19.973	16.352	0.508
538.000	344.673	79.987	19.995	99.838	19.970	16.607	0.537
538.500	344.917	79.990	19.995	99.836	19.968	16.806	0.513
539.000	345.196	79.988	19.995	99.843	19.969	16.717	0.509
539.500	345.430	79.987	19.996	99.850	19.968	16.808	0.518
540.000	345.660	79.987	19.995	99.856	19.967	16.946	0.488
540.500	345.921	79.988	19.994	99.857	19.961	17.494	0.477
541.000	346.172	79.988	19.994	99.856	19.962	17.353	0.502
541.500	346.415	79.989	19.995	99.851	19.963	17.262	0.503
542.000	346.672	79.989	19.996	99.845	19.959	17.688	0.497
542.500	346.924	79.989	19.994	99.841	19.956	17.983	0.504
543.000	347.155	79.989	19.995	99.847	19.954	18.145	0.495
543.500	347.384	79.988	19.995	99.853	19.952	18.299	0.472
544.000	347.649	79.989	19.994	99.858	19.952	18.353	0.478
544.500	347.904	79.990	19.995	99.866	19.948	18.736	0.507
545.000	348.159	79.991	19.994	99.873	19.946	18.945	0.515
545.500	348.408	79.989	19.994	99.868	19.944	19.099	0.507
546.000	348.679	79.990	19.994	99.862	19.939	19.605	0.512
546.500	348.966	79.988	19.995	99.855	19.939	19.610	0.539
547.000	349.178	79.989	19.994	99.848	19.937	19.749	0.528
547.500	349.426	79.991	19.994	99.841	19.936	19.856	0.479
548.000	349.678	79.988	19.995	99.841	19.932	20.253	0.480
548.500	349.922	79.986	19.995	99.841	19.926	20.817	0.498
549.000	350.182	79.990	19.994	99.841	19.929	20.560	0.500
549.500	350.442	79.986	19.995	99.842	19.924	21.020	0.512
550.000	350.676	79.989	19.995	99.841	19.919	21.448	0.507
550.500	350.941	79.987	19.995	99.840	19.913	22.012	0.496
551.000	351.199	79.988	19.994	99.841	19.910	22.380	0.511
551.500	351.459	79.987	19.995	99.841	19.902	23.145	0.520
552.000	351.677	79.987	19.994	99.841	19.903	23.041	0.498
552.500	351.965	79.986	19.994	99.843	19.897	23.553	0.492
553.000	352.207	79.986	19.994	99.846	19.894	23.912	0.518
553.500	352.445	79.985	19.995	99.847	19.887	24.509	0.505
554.000	352.697	79.986	19.993	99.847	19.884	24.785	0.485
554.500	352.964	79.985	19.993	99.847	19.880	25.221	0.505
555.000	353.207	79.987	19.995	99.846	19.870	26.141	0.514
555.500	353.479	79.987	19.996	99.844	19.871	26.013	0.512
556.000	353.745	79.988	19.995	99.843	19.865	26.651	0.526
556.500	354.002	79.986	19.994	99.843	19.860	27.139	0.531
557.000	354.236	79.987	19.998	99.843	19.852	27.906	0.507
557.500	354.494	79.987	19.996	99.843	19.847	28.376	0.492
558.000	354.739	79.985	19.996	99.846	19.839	29.089	0.498
558.500	354.994	79.988	19.995	99.848	19.836	29.365	0.501
559.000	355.260	79.987	19.993	99.848	19.830	30.008	0.510
559.500	355.507	79.986	19.995	99.852	19.823	30.654	0.517
560.000	355.715	79.987	19.995	99.856	19.819	31.005	0.484
560.500	355.963	79.986	19.995	99.861	19.812	31.710	0.456
561.000	356.248	79.988	19.994	99.865	19.804	32.449	0.495
561.500	356.482	79.988	19.993	99.865	19.796	33.183	0.526
562.000	356.734	79.986	19.996	99.867	19.787	34.065	0.502
562.500	356.982	79.986	19.996	99.870	19.783	34.478	0.492
563.000	357.263	79.985	19.995	99.870	19.776	35.161	0.514
563.500	357.512	79.988	19.995	99.871	19.769	35.811	0.530
564.000	357.741	79.987	19.993	99.877	19.758	36.872	0.505
564.500	357.987	79.985	19.995	99.876	19.753	37.328	0.477
565.000	358.256	79.987	19.994	99.874	19.743	38.294	0.495
565.500	358.489	79.989	19.996	99.874	19.736	38.924	0.508
566.000	358.728	79.990	19.995	99.872	19.724	40.096	0.487
566.500	359.011	79.987	19.994	99.872	19.719	40.556	0.497
567.000	359.245	79.986	19.995	99.876	19.710	41.438	0.519
567.500	359.478	79.988	19.994	99.878	19.696	42.734	0.492
568.000	359.742	79.989	19.994	99.884	19.685	43.791	0.482
568.500	359.986	79.986	19.993	99.888	19.680	44.310	0.503
569.000	360.220	79.989	19.994	99.888	19.665	45.727	0.493
569.500	360.481	79.989	19.995	99.888	19.656	46.571	0.487
570.000	360.739	79.986	19.995	99.889	19.646	47.562	0.507
570.500	361.019	79.989	19.994	99.887	19.639	48.232	0.528
571.000	361.259	79.988	19.995	99.891	19.624	49.671	0.529
571.500	361.507	79.985	19.994	99.892	19.612	50.762	0.504
572.000	361.742	79.987	19.994	99.894	19.601	51.808	0.485
572.500	362.013	79.987	19.993	99.895	19.585	53.348	0.495
573.000	362.239	79.987	19.995	99.896	19.575	54.326	0.502
573.500	362.528	79.987	19.994	99.897	19.562	55.522	0.506
574.000	362.756	79.986	19.995	99.902	19.553	56.400	0.516
574.500	362.993	79.986	19.994	99.908	19.536	58.051	0.491
575.000	363.251	79.987	19.995	99.913	19.527	58.905	0.480
575.500	363.524	79.987	19.994	99.917	19.510	60.522	0.513
576.000	363.744	79.987	19.993	99.919	19.498	61.659	0.512
576.500	364.009	79.988	19.992	99.920	19.483	63.115	0.489
577.000	364.263	79.987	19.993	99.921	19.465	64.827	0.502
577.500	364.539	79.987	19.992	99.921	19.454	65.872	0.525
578.000	364.768	79.987	19.994	99.921	19.437	67.473	0.518
578.500	365.037	79.986	19.993	99.919	19.418	69.239	0.501
579.000	365.281	79.987	19.993	99.917	19.398	71.151	0.505
579.500	365.566	79.986	19.992	99.916	19.386	72.296	0.522
580.000	365.781	79.987	19.993	99.916	19.368	74.089	0.514
580.500	366.042	79.988	19.993	99.918	19.350	75.726	0.488
581.000	366.311	79.986	19.994	99.921	19.335	77.216	0.503
581.500	366.541	79.986	19.994	99.924	19.314	79.231	0.515
582.000	366.776	79.984	19.992	99.925	19.300	80.553	0.481
582.500	367.056	79.986	19.993	99.925	19.279	82.553	0.490
583.000	367.314	79.985	19.994	99.923	19.256	84.743	0.527
583.500	367.571	79.986	19.994	99.923	19.241	86.110	0.527
584.000	367.821	79.986	19.994	99.922	19.218	88.351	0.511
584.500	368.074	79.986	19.993	99.922	19.198	90.286	0.505
585.000	368.328	79.987	19.993	99.923	19.177	92.232	0.505
585.500	368.567	79.985	19.992	99.927	19.155	94.369	0.500
586.000	368.802	79.985	19.993	99.931	19.135	96.245	0.483
586.500	369.080	79.986	19.994	99.933	19.111	98.519	0.493
587.000	369.350	79.984	19.992	99.938	19.089	100.652	0.530
587.500	369.625	79.986	19.993	99.942	19.064	103.047	0.547
588.000	369.858	79.987	19.994	99.945	19.043	105.080	0.527
588.500	370.098	79.986	19.992	99.949	19.024	106.843	0.491
589.000	370.362	79.987	19.994	99.950	18.998	109.377	0.488
589.500	370.619	79.985	19.993	99.947	18.972	111.858	0.512
590.000	370.882	79.985	19.993	99.945	18.947	114.264	0.521
590.500	371.106	79.986	19.993	99.943	18.920	116.781	0.504
591.000	371.415	79.987	19.993	99.941	18.896	119.113	0.510
591.500	371.649	79.987	19.994	99.942	18.873	121.245	0.538
592.000	371.911	79.985	19.993	99.941	18.843	124.088	0.519
592.500	372.149	79.987	19.994	99.939	18.815	126.792	0.498
593.000	372.391	79.988	19.994	99.938	18.792	128.948	0.490
593.500	372.691	79.986	19.994	99.937	18.763	131.704	0.511
594.000	372.950	79.988	19.995	99.940	18.735	134.427	0.551
594.500	373.214	79.987	19.995	99.945	18.702	137.564	0.541
595.000	373.457	79.987	19.996	99.952	18.673	140.372	0.514
595.500	373.749	79.989	19.995	99.957	18.643	143.221	0.521
596.000	373.951	79.986	19.994	99.958	18.611	146.287	0.515
596.500	374.214	79.989	19.995	99.959	18.581	149.077	0.480
597.000	374.494	79.989	19.994	99.955	18.552	151.858	0.504
597.500	374.711	79.988	19.995	99.954	18.518	155.129	0.520
598.000	374.956	79.988	19.995	99.954	18.490	157.756	0.479
598.500	375.209	79.989	19.994	99.954	18.456	160.975	0.480
599.000	375.496	79.988	19.994	99.953	18.423	164.111	0.519
599.500	375.743	79.987	19.993	99.958	18.391	167.183	0.537
600.000	375.976	79.988	19.994	99.961	18.358	170.342	0.507
600.500	376.240	79.988	19.994	99.968	18.326	173.395	0.489
601.000	376.505	79.988	19.995	99.971	18.298	175.977	0.514
601.500	376.775	79.988	19.994	99.971	18.264	179.232	0.532
602.000	377.027	79.987	19.994	99.966	18.228	182.614	0.528
602.500	377.252	79.988	19.995	99.956	18.192	186.093	0.499
603.000	377.522	79.987	19.995	99.940	18.161	189.055	0.486
603.500	377.751	79.987	19.995	99.932	18.126	192.387	0.497
604.000	378.023	79.986	19.994	99.931	18.090	195.761	0.500
604.500	378.266	79.987	19.993	99.937	18.055	199.127	0.508
605.000	378.478	79.989	19.993	99.946	18.016	202.830	0.485
605.500	378.781	79.986	19.995	99.955	17.984	205.913	0.485
606.000	379.016	79.987	19.994	99.961	17.950	209.153	0.526
606.500	379.305	79.987	19.993	99.961	17.910	212.944	0.531
607.000	379.530	79.987	19.994	99.959	17.878	215.916	0.519
607.500	379.813	79.986	19.993	99.957	17.844	219.150	0.511
608.000	380.071	79.986	19.993	99.950	17.809	222.478	0.525
608.500	380.301	79.987	19.994	99.945	17.779	225.297	0.514
609.000	380.585	79.987	19.994	99.944	17.747	228.259	0.501
609.500	380.789	79.988	19.994	99.942	17.713	231.491	0.501
610.000	381.072	79.986	19.995	99.934	17.681	234.518	0.487
610.500	381.273	79.988	19.995	99.934	17.650	237.444	0.485
611.000	381.553	79.985	19.995	99.929	17.626	239.743	0.482
611.500	381.804	79.988	19.994	99.918	17.591	243.074	0.506
612.000	382.065	79.988	19.996	99.903	17.558	246.161	0.521
612.500	382.298	79.989	19.994	99.895	17.529	248.954	0.503
613.000	382.550	79.989	19.994	99.886	17.499	251.836	0.490
613.500	382.817	79.987	19.994	99.879	17.471	254.514	0.502
614.000	383.068	79.987	19.994	99.878	17.440	257.373	0.518
614.500	383.318	79.986	19.994	99.881	17.413	260.004	0.510
615.000	383.549	79.988	19.993	99.881	17.390	262.198	0.491
615.500	383.812	79.988	19.993	99.881	17.368	264.243	0.487
616.000	384.045	79.988	19.993	99.877	17.344	266.520	0.494
616.500	384.289	79.987	19.994	99.873	17.322	268.643	0.486
617.000	384.559	79.988	19.994	99.869	17.299	270.725	0.496
617.500	384.793	79.988	19.993	99.861	17.284	272.171	0.509
618.000	385.074	79.988	19.994	99.849	17.267	273.760	0.510
618.500	385.354	79.988	19.994	99.839	17.249	275.447	0.538
619.000	385.597	79.989	19.993	99.827	17.237	276.574	0.542
619.500	385.847	79.990	19.994	99.810	17.221	278.118	0.508
620.000	386.079	79.989	19.995	99.796	17.210	279.066	0.488
620.500	386.345	79.989	19.993	99.785	17.195	280.559	0.490
621.000	386.619	79.989	19.995	99.775	17.186	281.353	0.519
621.500	386.884	79.989	19.995	99.767	17.176	282.321	0.539
622.000	387.103	79.989	19.995	99.764	17.165	283.342	0.511
622.500	387.355	79.988	19.995	99.763	17.154	284.461	0.477
623.000	387.592	79.989	19.995	99.761	17.153	284.521	0.480
623.500	387.876	79.988	19.994	99.759	17.141	285.634	0.505
624.000	388.104	79.989	19.995	99.758	17.141	285.649	0.516
624.500	388.362	79.989	19.994	99.758	17.136	286.124	0.499
625.000	388.607	79.989	19.994	99.755	17.137	285.985	0.494
625.500	388.840	79.989	19.996	99.756	17.138	285.911	0.491
626.000	389.088	79.988	19.995	99.757	17.138	285.880	0.480
626.500	389.336	79.989	19.995	99.753	17.141	285.595	0.488
627.000	389.589	79.988	19.994	99.746	17.143	285.374	0.499
627.500	389.827	79.988	19.994	99.741	17.155	284.255	0.496
628.000	390.062	79.988	19.994	99.733	17.159	283.866	0.482
628.500	390.306	79.987	19.994	99.723	17.166	283.211	0.476
629.000	390.571	79.988	19.994	99.712	17.176	282.295	0.494
629.500	390.827	79.987	19.993	99.705	17.191	280.864	0.515
630.000	391.097	79.987	19.995	99.699	17.203	279.644	0.524
630.500	391.334	79.987	19.994	99.692	17.218	278.275	0.516
631.000	391.603	79.986	19.995	99.686	17.226	277.440	0.506
631.500	391.835	79.986	19.994	99.684	17.243	275.809	0.504
632.000	392.107	79.986	19.995	99.682	17.257	274.544	0.503
632.500	392.345	79.985	19.995	99.681	17.280	272.363	0.507
633.000	392.580	79.987	19.994	99.682	17.295	270.922	0.492
633.500	392.835	79.986	19.995	99.684	17.316	268.904	0.481
634.000	393.104	79.987	19.994	99.683	17.338	266.796	0.506
634.500	393.359	79.986	19.996	99.677	17.364	264.250	0.524
635.000	393.642	79.989	19.996	99.672	17.386	262.199	0.531
635.500	393.867	79.987	19.996	99.671	17.409	259.957	0.523
636.000	394.129	79.987	19.995	99.669	17.433	257.751	0.497
636.500	394.374	79.986	19.994	99.665	17.457	255.491	0.497
637.000	394.632	79.987	19.994	99.665	17.487	252.622	0.505
637.500	394.862	79.986	19.996	99.662	17.507	250.723	0.496
638.000	395.119	79.987	19.995	99.656	17.536	247.924	0.488
638.500	395.367	79.986	19.993	99.653	17.560	245.719	0.496
639.000	395.634	79.985	19.993	99.655	17.593	242.589	0.510
639.500	395.885	79.986	19.993	99.657	17.615	240.488	0.516
640.000	396.118	79.986	19.993	99.657	17.645	237.618	0.501
640.500	396.343	79.986	19.994	99.658	17.680	234.383	0.472
641.000	396.626	79.987	19.994	99.655	17.712	231.335	0.483
641.500	396.859	79.987	19.993	99.652	17.750	227.726	0.512
642.000	397.118	79.986	19.994	99.646	17.774	225.460	0.504
642.500	397.368	79.987	19.995	99.644	17.811	221.905	0.500
643.000	397.633	79.985	19.993	99.643	17.843	218.883	0.511
643.500	397.871	79.986	19.994	99.639	17.875	215.880	0.509
644.000	398.111	79.986	19.995	99.636	17.909	212.596	0.491
644.500	398.388	79.987	19.994	99.634	17.943	209.393	0.497
645.000	398.631	79.986	19.994	99.628	17.980	205.867	0.518
645.500	398.927	79.987	19.994	99.621	18.018	202.209	0.529
646.000	399.143	79.987	19.994	99.618	18.054	198.868	0.526
646.500	399.436	79.987	19.994	99.616	18.085	195.917	0.511
647.000	399.643	79.987	19.995	99.618	18.119	192.621	0.505
647.500	399.870	79.986	19.995	99.623	18.157	189.043	0.467
648.000	400.127	79.986	19.993	99.628	18.195	185.459	0.459
648.500	400.404	79.986	19.995	99.631	18.229	182.234	0.509
649.000	400.647	79.987	19.994	99.631	18.261	179.130	0.527
649.500	400.909	79.987	19.994	99.634	18.300	175.463	0.513
650.000	401.173	79.986	19.993	99.636	18.331	172.528	0.515
650.500	401.408	79.987	19.994	99.639	18.362	169.507	0.512
651.000	401.664	79.987	19.994	99.645	18.400	165.903	0.495
651.500	401.865	79.986	19.994	99.657	18.435	162.663	0.474
652.000	402.158	79.987	19.994	99.665	18.468	159.541	0.476
652.500	402.376	79.986	19.994	99.669	18.498	156.606	0.503
653.000	402.650	79.988	19.994	99.672	18.532	153.435	0.501
653.500	402.899	79.986	19.995	99.677	18.571	149.727	0.508
654.000	403.168	79.986	19.993	99.678	18.598	147.187	0.521
654.500	403.399	79.987	19.995	99.676	18.634	143.709	0.509
655.000	403.645	79.987	19.995	99.680	18.666	140.636	0.489
655.500	403.911	79.986	19.996	99.686	18.700	137.488	0.494
656.000	404.159	79.988	19.995	99.685	18.731	134.531	0.513
656.500	404.367	79.990	19.996	99.685	18.762	131.506	0.485
657.000	404.626	79.989	19.994	99.688	18.792	128.665	0.462
657.500	404.887	79.987	19.997	99.688	18.827	125.324	0.494
658.000	405.123	79.989	19.995	99.689	18.854	122.806	0.508
658.500	405.398	79.987	19.997	99.689	18.885	119.873	0.504
659.000	405.658	79.987	19.997	99.689	18.914	117.042	0.523
659.500	405.892	79.985	19.996	99.688	18.940	114.611	0.514
660.000	406.156	79.986	19.995	99.688	18.968	111.991	0.496
660.500	406.366	79.988	19.996	99.687	18.997	109.193	0.486
661.000	406.668	79.986	19.994	99.687	19.022	106.845	0.493
661.500	406.914	79.985	19.996	99.690	19.049	104.231	0.530
662.000	407.125	79.986	19.995	99.696	19.074	101.884	0.503
662.500	407.391	79.985	19.995	99.703	19.101	99.275	0.467
663.000	407.640	79.985	19.994	99.710	19.129	96.636	0.496
663.500	407.883	79.987	19.996	99.717	19.155	94.176	0.503
664.000	408.171	79.987	19.993	99.722	19.172	92.584	0.512
664.500	408.372	79.986	19.996	99.723	19.203	89.590	0.510
665.000	408.600	79.987	19.996	99.723	19.226	87.477	0.459
665.500	408.859	79.986	19.994	99.725	19.246	85.494	0.458
666.000	409.130	79.987	19.994	99.726	19.269	83.378	0.508
666.500	409.346	79.987	19.994	99.726	19.283	81.992	0.508
667.000	409.607	79.987	19.994	99.726	19.305	79.894	0.482
667.500	409.850	79.986	19.994	99.725	19.325	77.971	0.491
668.000	410.113	79.987	19.995	99.724	19.352	75.449	0.505
668.500	410.384	79.987	19.995	99.724	19.368	73.895	0.520
669.000	410.609	79.986	19.994	99.724	19.386	72.178	0.515
669.500	410.879	79.987	19.994	99.725	19.409	69.979	0.496
670.000	411.130	79.988	19.995	99.726	19.425	68.498	0.508
670.500	411.350	79.987	19.994	99.728	19.446	66.464	0.496
671.000	411.611	79.987	19.995	99.732	19.463	64.896	0.476
671.500	411.835	79.987	19.996	99.736	19.482	63.029	0.483
672.000	412.145	79.988	19.995	99.738	19.496	61.702	0.509
672.500	412.383	79.988	19.994	99.743	19.516	59.871	0.541
673.000	412.666	79.987	19.995	99.749	19.532	58.354	0.534
673.500	412.897	79.988	19.995	99.754	19.543	57.268	0.518
674.000	413.132	79.989	19.994	99.757	19.555	56.077	0.490
674.500	413.388	79.987	19.995	99.763	19.573	54.394	0.478
675.000	413.639	79.989	19.994	99.766	19.590	52.797	0.499
675.500	413.851	79.988	19.993	99.767	19.606	51.235	0.485
676.000	414.114	79.989	19.993	99.768	19.616	50.307	0.469
676.500	414.418	79.988	19.993	99.771	19.628	49.155	0.521
677.000	414.632	79.988	19.994	99.775	19.637	48.342	0.542
677.500	414.893	79.988	19.993	99.776	19.650	47.075	0.496
678.000	415.142	79.991	19.994	99.780	19.666	45.568	0.492
678.500	415.394	79.990	19.993	99.778	19.676	44.580	0.506
679.000	415.655	79.989	19.995	99.775	19.693	43.000	0.507
679.500	415.885	79.989	19.995	99.771	19.697	42.618	0.502
680.000	416.114	79.989	19.995	99.769	19.711	41.294	0.475
680.500	416.391	79.990	19.995	99.766	19.717	40.671	0.482
681.000	416.637	79.989	19.996	99.769	19.732	39.250	0.515
681.500	416.859	79.989	19.997	99.776	19.742	38.340	0.495
682.000	417.136	79.989	19.995	99.781	19.749	37.658	0.483
682.500	417.420	79.988	19.995	99.785	19.762	36.413	0.530
683.000	417.624	79.987	19.996	99.789	19.769	35.746	0.524
683.500	417.887	79.986	19.996	99.788	19.777	34.998	0.477
684.000	418.136	79.989	19.995	99.784	19.788	33.906	0.489
684.500	418.431	79.989	19.997	99.780	19.797	33.092	0.528
685.000	418.665	79.987	19.997	99.777	19.805	32.367	0.536
685.500	418.909	79.986	19.997	99.774	19.811	31.771	0.503
686.000	419.125	79.987	19.996	99.779	19.823	30.608	0.469
686.500	419.406	79.988	19.995	99.783	19.826	30.282	0.478
687.000	419.680	79.988	19.997	99.790	19.837	29.240	0.526
687.500	419.918	79.987	19.996	99.795	19.846	28.424	0.534
688.000	420.195	79.988	19.995	99.801	19.851	27.935	0.514
688.500	420.409	79.987	19.997	99.801	19.861	26.981	0.503
689.000	420.675	79.986	19.995	99.801	19.865	26.572	0.486
689.500	420.926	79.989	19.996	99.801	19.873	25.888	0.498
690.000	421.173	79.989	19.994	99.802	19.877	25.496	0.507
690.500	421.410	79.986	19.995	99.805	19.885	24.677	0.491
691.000	421.643	79.986	19.995	99.806	19.895	23.780	0.477
691.500	421.912	79.988	19.994	99.806	19.896	23.686	0.486
692.000	422.206	79.988	19.995	99.806	19.898	23.520	0.533
692.500	422.440	79.989	19.995	99.806	19.905	22.825	0.546
693.000	422.695	79.987	19.995	99.804	19.912	22.178	0.508
693.500	422.926	79.988	19.994	99.807	19.920	21.389	0.487
694.000	423.201	79.987	19.996	99.808	19.919	21.453	0.496
694.500	423.421	79.988	19.994	99.810	19.926	20.838	0.500
695.000	423.682	79.987	19.993	99.812	19.931	20.316	0.488
695.500	423.963	79.988	19.995	99.811	19.936	19.815	0.511
696.000	424.202	79.988	19.994	99.808	19.938	19.701	0.531
696.500	424.486	79.987	19.995	99.806	19.942	19.239	0.522
697.000	424.724	79.986	19.996	99.806	19.945	18.981	0.522
697.500	424.955	79.989	19.995	99.804	19.957	17.903	0.495
698.000	425.218	79.989	19.995	99.806	19.953	18.212	0.481
698.500	425.490	79.988	19.995	99.809	19.962	17.340	0.515
699.000	425.762	79.987	19.995	99.813	19.967	16.949	0.540
699.500	425.982	79.989	19.993	99.814	19.966	17.037	0.518
700.000	426.245	79.989	19.995	99.813	19.970	16.664	0.488
700.500	426.504	79.989	19.994	99.812	19.971	16.540	0.503
701.000	426.769	79.989	19.994	99.809	19.980	15.704	0.523
701.500	427.039	79.990	19.994	99.808	19.975	16.126	0.529
702.000	427.271	79.989	19.995	99.807	19.980	15.641	0.519
702.500	427.541	79.988	19.994	99.808	19.984	15.258	0.502
703.000	427.825	79.990	19.994	99.809	19.987	15.023	0.528
703.500	428.071	79.989	19.994	99.815	19.988	14.879	0.542
704.000	428.356	79.990	19.995	99.815	19.995	14.214	0.531
704.500	428.590	79.989	19.996	99.820	19.993	14.398	0.525
705.000	428.855	79.989	19.994	99.824	19.994	14.312	0.509
705.500	429.099	79.988	19.995	99.826	20.000	13.751	0.504
706.000	429.350	79.990	19.996	99.825	20.004	13.405	0.502
706.500	429.609	79.987	19.995	99.827	20.003	13.506	0.503
707.000	429.898	79.989	19.994	99.827	20.007	13.045	0.528
707.500	430.109	79.988	19.995	99.824	20.008	12.962	0.524
708.000	430.349	79.987	19.994	99.825	20.009	12.891	0.476
708.500	430.653	79.988	19.994	99.825	20.012	12.656	0.498
709.000	430.925	79.988	19.994	99.828	20.010	12.851	0.560
709.500	431.155	79.987	19.994	99.825	20.013	12.520	0.539
710.000	431.407	79.987	19.996	99.827	20.011	12.697	0.492
710.501	431.679	79.987	19.996	99.824	20.018	12.088	0.503
711.000	431.953	79.986	19.995	99.820	20.016	12.211	0.535
711.500	432.231	79.985	19.995	99.813	20.017	12.109	0.549
712.000	432.522	79.986	19.995	99.816	20.018	12.026	0.561
712.500	432.777	79.985	19.995	99.817	20.025	11.393	0.557
713.000	433.018	79.985	19.996	99.817	20.023	11.586	0.521
713.500	433.344	79.987	19.996	99.818	20.025	11.375	0.532
714.000	433.552	79.985	19.995	99.820	20.028	11.097	0.551
714.500	433.792	79.986	19.996	99.814	20.025	11.345	0.491
715.000	434.060	79.987	19.995	99.809	20.029	11.021	0.478
715.500	434.347	79.986	19.995	99.808	20.035	10.458	0.531
716.000	434.564	79.986	19.995	99.807	20.030	10.860	0.529
716.500	434.809	79.985	19.995	99.805	20.033	10.607	0.483
717.000	435.092	79.984	19.994	99.805	20.035	10.443	0.495
717.500	435.366	79.985	19.995	99.806	20.040	9.968	0.543
718.000	435.658	79.985	19.995	99.808	20.037	10.228	0.561
718.500	435.891	79.985	19.994	99.808	20.040	9.962	0.545
719.000	436.135	79.986	19.995	99.804	20.038	10.105	0.501
719.500	436.378	79.987	19.995	99.801	20.042	9.769	0.482
720.000	436.623	79.986	19.995	99.799	20.043	9.688	0.488
720.500	436.938	79.988	19.996	99.796	20.043	9.654	0.524
721.000	437.124	79.987	19.996	99.797	20.045	9.462	0.530
721.500	437.431	79.987	19.996	99.803	20.048	9.232	0.497
722.000	437.686	79.986	19.994	99.807	20.047	9.331	0.528
722.500	437.977	79.985	19.994	99.810	20.051	8.934	0.554
723.000	438.204	79.987	19.995	99.813	20.047	9.247	0.532
723.500	438.410	79.987	19.994	99.815	20.052	8.826	0.475
724.000	438.704	79.987	19.995	99.818	20.054	8.626	0.466
724.500	438.970	79.986	19.997	99.822	20.052	8.824	0.530
725.000	439.204	79.986	19.995	99.824	20.053	8.695	0.530
725.500	439.391	79.987	19.994	99.825	20.051	8.909	0.461
726.000	439.735	79.988	19.994	99.827	20.056	8.400	0.476
726.500	439.972	79.987	19.994	99.829	20.057	8.371	0.556
727.000	440.216	79.988	19.996	99.831	20.058	8.238	0.532
727.500	440.478	79.986	19.994	99.832	20.057	8.360	0.494
728.000	440.770	79.986	19.994	99.832	20.059	8.101	0.530
728.500	440.967	79.987	19.994	99.830	20.062	7.871	0.521
729.000	441.280	79.987	19.994	99.826	20.060	8.010	0.499
729.500	441.531	79.987	19.995	99.819	20.061	7.986	0.537
730.000	441.751	79.988	19.995	99.816	20.058	8.216	0.518
730.500	441.998	79.987	19.995	99.818	20.064	7.710	0.469
731.000	442.274	79.987	19.994	99.819	20.067	7.353	0.495
731.500	442.543	79.987	19.994	99.822	20.066	7.447	0.534
732.000	442.810	79.987	19.994	99.828	20.068	7.329	0.540
732.500	443.059	79.986	19.994	99.828	20.065	7.567	0.526
733.000	443.317	79.987	19.994	99.827	20.067	7.348	0.511
733.500	443.590	79.987	19.994	99.821	20.068	7.251	0.519
734.000	443.837	79.989	19.994	99.815	20.068	7.241	0.526
734.500	444.108	79.988	19.994	99.810	20.066	7.440	0.519
735.000	444.377	79.987	19.995	99.813	20.068	7.312	0.529
735.500	444.633	79.988	19.994	99.815	20.069	7.175	0.532
736.000	444.861	79.987	19.994	99.822	20.067	7.407	0.505
736.500	445.086	79.987	19.993	99.826	20.069	7.214	0.468
737.000	445.352	79.987	19.994	99.829	20.067	7.367	0.472
737.500	445.631	79.986	19.993	99.825	20.067	7.414	0.518
738.000	445.893	79.987	19.993	99.819	20.066	7.507	0.543
738.500	446.142	79.986	19.992	99.812	20.064	7.621	0.526
739.000	446.373	79.986	19.993	99.806	20.068	7.327	0.495
739.500	446.652	79.986	19.993	99.802	20.070	7.127	0.495
740.000	446.931	79.986	19.994	99.801	20.069	7.229	0.534
740.500	447.172	79.987	19.994	99.804	20.066	7.474	0.539
741.000	447.440	79.987	19.995	99.805	20.068	7.300	0.514
741.500	447.663	79.986	19.996	99.806	20.069	7.175	0.500
742.000	447.954	79.986	19.995	99.805	20.074	6.679	0.502
742.500	448.207	79.986	19.996	99.805	20.071	7.023	0.529
743.000	448.450	79.987	19.996	99.803	20.068	7.281	0.520
743.500	448.701	79.987	19.995	99.803	20.070	7.076	0.495
744.000	448.935	79.987	19.994	99.803	20.074	6.744	0.490
744.500	449.223	79.986	19.995	99.804	20.074	6.742	0.503
745.000	449.501	79.986	19.995	99.810	20.073	6.841	0.544
745.500	449.780	79.986	19.994	99.816	20.068	7.266	0.561
746.000	450.030	79.987	19.994	99.822	20.071	7.042	0.543
746.500	450.285	79.986	19.994	99.829	20.068	7.324	0.517
747.000	450.546	79.986	19.995	99.834	20.069	7.173	0.510
747.500	450.760	79.986	19.993	99.828	20.073	6.852	0.496
748.000	451.036	79.987	19.995	99.822	20.072	6.876	0.483
748.500	451.304	79.985	19.996	99.815	20.068	7.285	0.517
749.000	451.520	79.987	19.996	99.810	20.066	7.457	0.514
749.500	451.786	79.986	19.993	99.804	20.073	6.836	0.483
750.000	452.050	79.987	19.994	99.807	20.072	6.865	0.506
750.500	452.295	79.987	19.994	99.813	20.075	6.596	0.519
751.000	452.529	79.987	19.993	99.821	20.076	6.570	0.494
751.500	452.776	79.988	19.994	99.826	20.081	6.075	0.480
752.000	453.034	79.987	19.994	99.829	20.073	6.766	0.493
752.500	453.299	79.986	19.996	99.834	20.074	6.760	0.514
753.000	453.602	79.988	19.995	99.830	20.076	6.497	0.546
753.500	453.813	79.987	19.995	99.825	20.075	6.575	0.541
754.000	454.068	79.987	19.994	99.826	20.073	6.848	0.490
754.500	454.350	79.987	19.994	99.828	20.077	6.418	0.501
755.000	454.621	79.987	19.995	99.825	20.075	6.634	0.545
755.500	454.873	79.988	19.996	99.826	20.076	6.485	0.538
756.000	455.094	79.989	19.993	99.832	20.079	6.195	0.498
756.500	455.345	79.988	19.992	99.834	20.077	6.467	0.472
757.000	455.634	79.988	19.994	99.836	20.078	6.357	0.506
757.500	455.921	79.988	19.994	99.839	20.075	6.616	0.559
758.000	456.167	79.987	19.993	99.843	20.079	6.261	0.554
758.500	456.420	79.988	19.993	99.843	20.080	6.118	0.516
759.000	456.670	79.989	19.994	99.843	20.076	6.557	0.501
759.500	456.928	79.988	19.992	99.842	20.079	6.283	0.505
760.000	457.199	79.988	19.993	99.841	20.081	6.071	0.519
760.500	457.439	79.988	19.992	99.841	20.079	6.272	0.520
761.000	457.746	79.989	19.994	99.840	20.077	6.397	0.529
761.500	457.992	79.988	19.994	99.839	20.080	6.117	0.550
762.000	458.236	79.989	19.992	99.839	20.083	5.857	0.522
762.500	458.482	79.989	19.993	99.837	20.081	6.003	0.490
763.000	458.738	79.989	19.993	99.834	20.077	6.454	0.495
763.500	459.016	79.989	19.992	99.832	20.078	6.319	0.518
764.000	459.282	79.988	19.992	99.829	20.080	6.131	0.540
764.500	459.552	79.990	19.994	99.826	20.077	6.441	0.540
765.000	459.835	79.988	19.993	99.823	20.084	5.778	0.545
765.500	460.095	79.988	19.994	99.819	20.082	5.904	0.548
766.000	460.327	79.988	19.994	99.815	20.079	6.214	0.517
766.500	460.583	79.986	19.993	99.811	20.080	6.102	0.490
767.000	460.862	79.987	19.995	99.807	20.077	6.438	0.512
767.500	461.130	79.988	19.994	99.808	20.077	6.451	0.541
768.000	461.374	79.988	19.995	99.812	20.078	6.376	0.529
768.500	461.677	79.987	19.994	99.813	20.081	6.066	0.529
769.000	461.905	79.987	19.994	99.819	20.076	6.520	0.539
769.500	462.151	79.988	19.995	99.825	20.079	6.282	0.502
770.000	462.423	79.987	19.994	99.828	20.081	6.050	0.496
770.500	462.689	79.987	19.995	99.825	20.078	6.378	0.528
771.000	462.969	79.987	19.994	99.823	20.076	6.527	0.542
771.500	463.157	79.986	19.995	99.819	20.075	6.636	0.507
772.000	463.446	79.987	19.996	99.814	20.075	6.613	0.473
772.500	463.676	79.987	19.995	99.810	20.075	6.580	0.498
773.000	463.952	79.988	19.995	99.814	20.075	6.604	0.512
773.500	464.213	79.988	19.994	99.818	20.076	6.487	0.521
774.000	464.477	79.986	19.995	99.818	20.075	6.606	0.531
774.500	464.721	79.987	19.995	99.822	20.075	6.590	0.516
775.000	464.978	79.987	19.994	99.821	20.077	6.462	0.505
775.500	465.253	79.987	19.994	99.816	20.077	6.438	0.517
776.000	465.526	79.987	19.993	99.812	20.076	6.548	0.540
776.500	465.786	79.988	19.993	99.814	20.075	6.608	0.540
777.000	466.000	79.988	19.992	99.812	20.080	6.180	0.504
777.500	466.284	79.987	19.995	99.812	20.076	6.548	0.487
778.000	466.550	79.987	19.994	99.813	20.075	6.582	0.524
778.500	466.787	79.988	19.994	99.817	20.079	6.264	0.526
779.000	467.063	79.987	19.994	99.818	20.080	6.186	0.508
779.500	467.346	79.988	19.994	99.818	20.076	6.507	0.536
780.000	467.574	79.988	19.994	99.821	20.077	6.397	0.535
780.500	467.848	79.988	19.994	99.821	20.075	6.663	0.506
781.000	468.102	79.988	19.994	99.817	20.076	6.485	0.515
781.500	468.341	79.987	19.994	99.812	20.081	6.044	0.511
782.000	468.577	79.989	19.994	99.811	20.080	6.104	0.484
782.500	468.847	79.988	19.994	99.813	20.079	6.235	0.490
783.000	469.100	79.989	19.994	99.821	20.077	6.417	0.514
783.500	469.328	79.989	19.994	99.828	20.081	6.066	0.502
784.000	469.622	79.989	19.994	99.833	20.082	5.977	0.502
784.500	469.848	79.991	19.994	99.835	20.080	6.167	0.522
785.000	470.119	79.990	19.993	99.829	20.077	6.399	0.509
785.500	470.328	79.989	19.993	99.822	20.080	6.177	0.488
786.000	470.618	79.990	19.992	99.815	20.079	6.227	0.489
786.500	470.882	79.991	19.994	99.809	20.079	6.274	0.526
787.000	471.148	79.990	19.995	99.811	20.077	6.389	0.543
787.500	471.353	79.991	19.994	99.813	20.077	6.446	0.501
788.000	471.603	79.991	19.994	99.816	20.076	6.511	0.463
788.500	471.895	79.990	19.996	99.821	20.081	6.018	0.499
789.000	472.170	79.990	19.995	99.822	20.078	6.287	0.555
789.500	472.421	79.989	19.996	99.820	20.077	6.412	0.546
790.000	472.654	79.990	19.994	99.825	20.074	6.693	0.505
790.500	472.966	79.990	19.995	99.827	20.075	6.581	0.514
791.000	473.208	79.988	19.994	99.825	20.075	6.607	0.549
791.500	473.465	79.988	19.994	99.823	20.074	6.704	0.527
792.000	473.711	79.988	19.994	99.818	20.079	6.276	0.501
792.500	473.973	79.989	19.996	99.810	20.075	6.589	0.505
793.000	474.219	79.986	19.995	99.807	20.077	6.469	0.508
793.500	474.497	79.988	19.995	99.811	20.078	6.284	0.516
794.000	474.733	79.987	19.994	99.815	20.075	6.651	0.519
794.500	474.999	79.987	19.994	99.816	20.077	6.451	0.508
795.000	475.199	79.987	19.995	99.817	20.076	6.503	0.484
795.500	475.497	79.987	19.995	99.815	20.075	6.623	0.482
796.000	475.769	79.987	19.996	99.810	20.074	6.709	0.534
796.500	476.023	79.986	19.995	99.807	20.072	6.925	0.548
797.000	476.280	79.987	19.996	99.812	20.075	6.615	0.518
797.500	476.523	79.985	19.995	99.814	20.078	6.357	0.505
798.000	476.769	79.986	19.997	99.814	20.070	7.121	0.495
798.500	477.033	79.986	19.995	99.815	20.070	7.048	0.500
799.000	477.268	79.987	19.995	99.815	20.075	6.613	0.504
799.500	477.584	79.986	19.996	99.811	20.082	5.943	0.525
800.000	477.804	79.987	19.997	99.810	20.077	6.462	0.543
800.500	478.036	79.986	19.996	99.810	20.074	6.702	0.494
801.000	478.312	79.987	19.996	99.807	20.072	6.908	0.481
801.500	478.524	79.987	19.997	99.806	20.075	6.587	0.498
802.000	478.779	79.986	19.996	99.805	20.076	6.519	0.477
802.500	479.100	79.986	19.994	99.805	20.072	6.949	0.521
803.000	479.291	79.988	19.997	99.804	20.075	6.597	0.544
803.500	479.557	79.989	19.995	99.805	20.075	6.618	0.485
804.000	479.832	79.986	19.996	99.806	20.077	6.428	0.499
804.500	480.079	79.987	19.996	99.805	20.075	6.639	0.532
805.000	480.329	79.987	19.995	99.805	20.075	6.647	0.510
805.500	480.567	79.987	19.996	99.803	20.075	6.628	0.493
806.000	480.837	79.988	19.996	99.803	20.080	6.104	0.498
806.500	481.067	79.988	19.996	99.802	20.073	6.819	0.504
807.000	481.337	79.987	19.995	99.803	20.081	6.058	0.500
807.500	481.587	79.988	19.995	99.803	20.075	6.660	0.510
808.000	481.853	79.987	19.995	99.803	20.077	6.441	0.518
808.500	482.071	79.989	19.995	99.804	20.074	6.751	0.500
809.000	482.334	79.987	19.994	99.811	20.078	6.349	0.482
809.500	482.560	79.987	19.993	99.815	20.076	6.501	0.485
810.000	482.803	79.988	19.994	99.818	20.075	6.634	0.479
810.500	483.087	79.987	19.993	99.821	20.076	6.517	0.498
811.000	483.333	79.988	19.993	99.821	20.076	6.475	0.528
811.500	483.588	79.988	19.993	99.818	20.078	6.337	0.516
812.000	483.833	79.990	19.995	99.815	20.074	6.728	0.500
812.500	484.077	79.989	19.996	99.812	20.072	6.873	0.494
813.000	484.315	79.989	19.993	99.811	20.077	6.409	0.485
813.500	484.599	79.987	19.996	99.811	20.074	6.670	0.502
814.000	484.864	79.990	19.995	99.810	20.079	6.190	0.536
814.500	485.107	79.989	19.994	99.810	20.078	6.328	0.528
815.000	485.386	79.988	19.994	99.811	20.079	6.273	0.515
815.500	485.624	79.988	19.993	99.810	20.074	6.719	0.520
816.000	485.859	79.988	19.994	99.811	20.081	6.088	0.495
816.500	486.123	79.988	19.992	99.811	20.078	6.305	0.486
817.000	486.361	79.988	19.994	99.813	20.080	6.130	0.500
817.500	486.621	79.989	19.994	99.813	20.085	5.697	0.500
818.000	486.897	79.988	19.995	99.817	20.075	6.610	0.517
818.500	487.144	79.989	19.994	99.818	20.077	6.448	0.529
819.000	487.367	79.988	19.993	99.816	20.079	6.211	0.496
819.500	487.667	79.988	19.993	99.812	20.078	6.302	0.497
820.000	487.898	79.987	19.993	99.811	20.079	6.241	0.527
820.500	488.145	79.987	19.993	99.809	20.079	6.226	0.505
821.000	488.420	79.987	19.994	99.814	20.077	6.426	0.501
821.500	488.645	79.986	19.992	99.816	20.077	6.411	0.511
822.000	488.898	79.987	19.994	99.817	20.076	6.489	0.489
822.500	489.150	79.986	19.993	99.817	20.077	6.443	0.491
823.000	489.378	79.986	19.995	99.814	20.079	6.276	0.492
823.500	489.679	79.987	19.994	99.807	20.077	6.396	0.504
824.000	489.940	79.986	19.994	99.806	20.077	6.438	0.546
824.500	490.169	79.988	19.994	99.806	20.074	6.732	0.526
825.000	490.445	79.988	19.995	99.806	20.074	6.701	0.497
825.500	490.702	79.986	19.993	99.807	20.073	6.829	0.519
826.000	490.945	79.987	19.994	99.806	20.074	6.745	0.517
826.500	491.144	79.987	19.994	99.807	20.075	6.605	0.471
827.000	491.447	79.985	19.993	99.806	20.076	6.524	0.472
827.500	491.729	79.987	19.995	99.805	20.072	6.886	0.544
828.000	491.945	79.987	19.993	99.805	20.073	6.826	0.542
828.500	492.221	79.987	19.994	99.806	20.073	6.842	0.495
829.000	492.468	79.986	19.993	99.804	20.071	6.993	0.507
829.500	492.701	79.987	19.993	99.804	20.072	6.910	0.501
830.000	492.988	79.987	19.994	99.805	20.080	6.130	0.500
830.500	493.228	79.987	19.993	99.800	20.071	7.011	0.523
831.000	493.478	79.988	19.995	99.794	20.072	6.860	0.508
831.500	493.730	79.986	19.995	99.793	20.074	6.740	0.496
832.000	493.964	79.987	19.995	99.793	20.072	6.858	0.494
832.500	494.232	79.988	19.994	99.793	20.071	6.959	0.494
833.000	494.516	79.988	19.994	99.798	20.075	6.636	0.527
833.500	494.755	79.988	19.992	99.804	20.073	6.844	0.538
834.000	495.035	79.988	19.994	99.804	20.077	6.417	0.521
834.500	495.265	79.988	19.994	99.804	20.071	6.967	0.514
835.000	495.507	79.987	19.995	99.804	20.074	6.683	0.491
835.500	495.769	79.989	19.993	99.805	20.069	7.230	0.488
836.000	495.989	79.989	19.995	99.805	20.074	6.748	0.493
836.500	496.255	79.989	19.995	99.805	20.076	6.568	0.484
837.000	496.515	79.989	19.995	99.804	20.070	7.105	0.506
837.500	496.758	79.989	19.995	99.805	20.069	7.225	0.515
838.000	497.030	79.990	19.994	99.805	20.074	6.683	0.509
838.500	497.285	79.989	19.993	99.804	20.069	7.160	0.521
839.000	497.516	79.990	19.994	99.805	20.070	7.100	0.506
839.500	497.783	79.990	19.994	99.805	20.071	6.998	0.492
840.000	498.041	79.989	19.993	99.804	20.068	7.249	0.512
840.500	498.301	79.989	19.993	99.805	20.064	7.656	0.522
841.000	498.548	79.991	19.993	99.805	20.066	7.458	0.513
841.500	498.799	79.990	19.994	99.806	20.070	7.111	0.502
842.000	499.040	79.989	19.993	99.806	20.076	6.545	0.495
842.500	499.316	79.989	19.993	99.806	20.070	7.071	0.505
843.000	499.544	79.989	19.993	99.806	20.070	7.076	0.510
843.500	499.817	79.990	19.992	99.806	20.072	6.876	0.502
844.000	500.070	79.988	19.992	99.806	20.064	7.671	0.514
844.500	500.332	79.989	19.994	99.806	20.070	7.131	0.520
845.000	500.591	79.989	19.993	99.806	20.069	7.215	0.518
845.500	500.865	79.989	19.992	99.806	20.071	6.962	0.527
846.000	501.137	79.989	19.992	99.806	20.071	7.030	0.540
846.500	501.341	79.989	19.992	99.807	20.069	7.226	0.511
847.000	501.628	79.991	19.992	99.807	20.070	7.062	0.483
847.500	501.866	79.990	19.993	99.807	20.070	7.129	0.508
848.000	502.122	79.988	19.994	99.806	20.074	6.728	0.510
848.500	502.377	79.989	19.994	99.806	20.073	6.816	0.503
849.000	502.623	79.989	19.993	99.805	20.072	6.878	0.506
849.500	502.869	79.987	19.993	99.806	20.072	6.925	0.496
850.000	503.115	79.988	19.993	99.805	20.065	7.522	0.492
850.500	503.368	79.987	19.994	99.805	20.067	7.411	0.496
851.000	503.634	79.988	19.995	99.810	20.069	7.192	0.509
851.500	503.856	79.986	19.993	99.811	20.071	6.994	0.503
852.000	504.138	79.988	19.997	99.811	20.072	6.882	0.496
852.500	504.367	79.988	19.996	99.811	20.066	7.518	0.508
853.000	504.632	79.988	19.996	99.811	20.072	6.928	0.503
853.500	504.895	79.987	19.995	99.806	20.071	7.024	0.511
854.000	505.160	79.987	19.994	99.805	20.070	7.050	0.528
854.500	505.401	79.987	19.995	99.804	20.072	6.938	0.517
855.000	505.666	79.988	19.994	99.803	20.066	7.494	0.506
855.500	505.927	79.987	19.995	99.807	20.077	6.386	0.516
856.000	506.184	79.989	19.996	99.810	20.071	7.011	0.522
856.500	506.416	79.988	19.997	99.812	20.074	6.711	0.503
857.000	506.672	79.987	19.996	99.816	20.076	6.511	0.488
857.500	506.942	79.988	19.995	99.822	20.071	6.954	0.507
858.000	507.184	79.987	19.995	99.819	20.071	7.019	0.519
858.500	507.440	79.989	19.995	99.814	20.072	6.943	0.505
859.000	507.685	79.989	19.995	99.812	20.073	6.850	0.500
859.500	507.951	79.988	19.995	99.807	20.074	6.693	0.506
860.000	508.231	79.989	19.995	99.802	20.073	6.832	0.528
860.500	508.444	79.989	19.996	99.801	20.070	7.082	0.519
861.000	508.751	79.989	19.996	99.806	20.078	6.321	0.507
861.500	509.006	79.989	19.995	99.811	20.069	7.233	0.541
862.000	509.253	79.989	19.995	99.819	20.072	6.865	0.532
862.500	509.517	79.988	19.995	99.820	20.074	6.732	0.507
863.000	509.761	79.990	19.994	99.821	20.073	6.795	0.510
863.500	509.996	79.991	19.995	99.816	20.070	7.047	0.494
864.000	510.226	79.991	19.995	99.809	20.072	6.946	0.472
864.500	510.471	79.991	19.994	99.802	20.072	6.917	0.470
865.000	510.746	79.991	19.994	99.801	20.073	6.781	0.497
865.500	511.004	79.991	19.995	99.802	20.074	6.729	0.526
866.000	511.277	79.991	19.993	99.803	20.073	6.802	0.532
866.500	511.510	79.991	19.994	99.806	20.073	6.802	0.518
867.000	511.755	79.990	19.994	99.807	20.067	7.386	0.492
867.500	512.041	79.991	19.993	99.805	20.074	6.698	0.505
868.000	512.277	79.990	19.993	99.805	20.073	6.813	0.527
868.500	512.565	79.990	19.993	99.805	20.072	6.860	0.523
869.000	512.777	79.997	19.994	99.804	20.072	6.875	0.512
869.500	513.051	79.999	19.994	99.802	20.073	6.766	0.493
870.000	513.347	80.009	19.994	99.804	20.074	6.748	0.528
870.500	513.583	80.009	19.995	99.806	20.069	7.167	0.551
871.000	513.878	80.008	19.994	99.808	20.067	7.376	0.532
871.500	514.093	80.009	19.994	99.809	20.071	6.990	0.521
872.000	514.362	80.008	19.995	99.808	20.075	6.604	0.497
872.500	514.656	80.008	19.994	99.806	20.072	6.917	0.524
873.000	514.878	80.008	19.996	99.803	20.076	6.518	0.539
873.500	515.181	80.008	19.995	99.800	20.075	6.575	0.520
874.000	515.416	80.008	19.994	99.800	20.070	7.052	0.532
874.500	515.667	80.007	19.994	99.800	20.069	7.182	0.512
875.000	515.933	80.007	19.993	99.800	20.071	6.984	0.502
875.500	516.144	80.008	19.994	99.800	20.071	6.971	0.497
876.000	516.437	80.008	19.995	99.799	20.069	7.193	0.490
876.500	516.671	80.007	19.995	99.799	20.070	7.076	0.515
877.000	516.938	80.007	19.995	99.799	20.072	6.896	0.514
877.500	517.204	80.007	19.996	99.798	20.069	7.212	0.517
878.000	517.478	80.006	19.996	99.798	20.070	7.136	0.537
878.500	517.740	80.007	19.995	99.799	20.071	6.954	0.538
879.000	518.000	80.006	19.995	99.799	20.070	7.123	0.529
879.500	518.263	80.007	19.995	99.799	20.073	6.816	0.522
880.000	518.520	80.006	19.995	99.799	20.070	7.066	0.521
880.500	518.779	80.007	19.996	99.800	20.068	7.290	0.518
881.000	519.023	80.005	19.995	99.801	20.068	7.285	0.510
881.500	519.262	80.000	19.995	99.800	20.068	7.246	0.493
882.000	519.546	80.002	19.996	99.800	20.071	7.009	0.503
882.500	519.796	80.004	19.994	99.799	20.070	7.092	0.528
883.000	520.019	80.003	19.996	99.798	20.068	7.291	0.504
883.500	520.288	80.001	19.996	99.794	20.068	7.278	0.482
884.000	520.525	79.997	19.994	99.791	20.068	7.291	0.499
884.500	520.813	79.994	19.996	99.790	20.066	7.465	0.515
885.000	521.074	79.991	19.995	99.785	20.067	7.361	0.537
885.500	521.323	79.985	19.993	99.782	20.067	7.355	0.530
886.000	521.608	79.986	19.995	99.785	20.073	6.805	0.522
886.500	521.865	79.987	19.994	99.789	20.068	7.282	0.538
887.000	522.092	79.987	19.994	99.790	20.068	7.251	0.513
887.500	522.357	79.985	19.994	99.796	20.066	7.465	0.488
888.000	522.630	79.985	19.996	99.801	20.065	7.567	0.515
888.500	522.876	79.987	19.993	99.801	20.066	7.491	0.528
889.000	523.130	79.987	19.993	99.801	20.065	7.601	0.509
889.500	523.394	79.987	19.993	99.802	20.070	7.058	0.509
890.000	523.661	79.987	19.995	99.803	20.068	7.288	0.525
890.500	523.898	79.986	19.995	99.803	20.064	7.687	0.517
891.000	524.166	79.986	19.993	99.803	20.068	7.312	0.504
891.500	524.428	79.987	19.994	99.805	20.069	7.177	0.517
892.000	524.610	79.987	19.994	99.805	20.068	7.323	0.487
892.500	524.935	79.987	19.994	99.806	20.068	7.247	0.476
893.000	525.173	79.986	19.994	99.807	20.068	7.309	0.535
893.500	525.452	79.987	19.993	99.808	20.069	7.147	0.541
894.000	525.707	79.988	19.994	99.808	20.067	7.395	0.526
894.500	525.929	79.988	19.994	99.810	20.063	7.762	0.505
895.000	526.175	79.988	19.994	99.809	20.068	7.275	0.472
895.500	526.447	79.987	19.995	99.808	20.069	7.225	0.492
896.000	526.707	79.987	19.995	99.806	20.069	7.210	0.525
896.500	526.957	79.987	19.994	99.805	20.070	7.118	0.521
897.000	527.225	79.988	19.994	99.802	20.068	7.272	0.514
897.500	527.486	79.986	19.993	99.801	20.065	7.572	0.523
898.000	527.750	79.987	19.993	99.802	20.065	7.603	0.527
898.500	527.986	79.987	19.994	99.804	20.065	7.598	0.513
899.000	528.262	79.987	19.993	99.805	20.065	7.614	0.506
899.500	528.496	79.987	19.994	99.806	20.064	7.679	0.511
900.000	528.775	79.985	19.993	99.807	20.067	7.369	0.511
900.500	529.065	79.986	19.995	99.807	20.065	7.544	0.541
901.000	529.312	79.987	19.994	99.812	20.066	7.445	0.553
901.500	529.533	79.986	19.996	99.815	20.064	7.643	0.503
902.000	529.829	79.987	19.995	99.821	20.064	7.635	0.493
902.500	530.048	79.988	19.996	99.822	20.064	7.619	0.516
903.000	530.336	79.987	19.995	99.822	20.061	7.919	0.511
903.500	530.595	79.987	19.994	99.815	20.066	7.436	0.527
904.000	530.863	79.986	19.994	99.810	20.068	7.303	0.536
904.500	531.093	79.987	19.995	99.804	20.062	7.856	0.512
905.000	531.367	79.986	19.994	99.805	20.064	7.655	0.501
905.500	531.612	79.987	19.993	99.804	20.064	7.645	0.512
906.000	531.881	79.986	19.994	99.804	20.065	7.590	0.517
906.500	532.141	79.988	19.993	99.806	20.064	7.708	0.522
907.000	532.400	79.987	19.993	99.807	20.064	7.690	0.525
907.500	532.655	79.985	19.993	99.807	20.063	7.755	0.517
908.000	532.908	79.985	19.994	99.807	20.066	7.452	0.511
908.500	533.144	79.985	19.994	99.807	20.068	7.257	0.498
909.000	533.422	79.985	19.994	99.806	20.069	7.225	0.502
909.500	533.699	79.986	19.994	99.805	20.066	7.520	0.534
910.000	533.947	79.986	19.994	99.804	20.069	7.165	0.540
910.500	534.220	79.986	19.993	99.805	20.066	7.486	0.523
911.000	534.524	79.986	19.994	99.807	20.067	7.376	0.549
911.500	534.750	79.987	19.994	99.811	20.066	7.470	0.553
912.000	534.993	79.986	19.994	99.811	20.067	7.397	0.499
912.500	535.272	79.986	19.994	99.811	20.070	7.056	0.495
913.000	535.532	79.987	19.995	99.810	20.066	7.447	0.531
913.500	535.748	79.987	19.995	99.808	20.066	7.507	0.508
914.000	536.002	79.987	19.994	99.806	20.066	7.475	0.473
914.500	536.306	79.988	19.996	99.807	20.066	7.506	0.514
915.000	536.535	79.987	19.994	99.806	20.066	7.464	0.546
915.500	536.761	79.987	19.994	99.806	20.066	7.516	0.494
916.000	537.033	79.988	19.994	99.806	20.067	7.399	0.477
916.500	537.294	79.988	19.995	99.804	20.065	7.566	0.515
917.000	537.538	79.987	19.993	99.806	20.068	7.261	0.518
917.500	537.829	79.988	19.995	99.808	20.067	7.339	0.520
918.000	538.081	79.988	19.995	99.809	20.068	7.313	0.539
918.500	538.361	79.988	19.994	99.811	20.075	6.646	0.538
919.000	538.587	79.988	19.994	99.811	20.070	7.115	0.519
919.500	538.862	79.989	19.994	99.809	20.067	7.363	0.503
920.000	539.108	79.990	19.994	99.807	20.070	7.102	0.511
920.500	539.374	79.989	19.995	99.806	20.067	7.425	0.516
921.000	539.639	79.988	19.994	99.805	20.069	7.198	0.522
921.500	539.873	79.989	19.994	99.804	20.070	7.102	0.515
922.000	540.167	79.991	19.995	99.802	20.070	7.128	0.513
922.500	540.410	79.990	19.994	99.802	20.069	7.206	0.533
923.000	540.702	79.991	19.994	99.804	20.068	7.284	0.536
923.500	540.945	79.991	19.994	99.805	20.069	7.178	0.535
924.000	541.197	79.991	19.993	99.804	20.070	7.068	0.515
924.500	541.465	79.991	19.993	99.804	20.069	7.225	0.508
925.000	541.727	79.990	19.994	99.804	20.069	7.227	0.525
925.500	541.985	79.990	19.994	99.797	20.068	7.305	0.525
926.000	542.230	79.991	19.994	99.795	20.067	7.388	0.512
926.500	542.511	79.993	19.994	99.795	20.065	7.524	0.515
927.000	542.760	79.991	19.993	99.795	20.065	7.526	0.527
927.500	543.009	79.990	19.994	99.795	20.064	7.628	0.514
928.000	543.268	79.990	19.994	99.799	20.064	7.618	0.503
928.500	543.484	79.989	19.994	99.800	20.064	7.705	0.491
