Sample ID:	C:\MCC\MCC Cal\Test\Rug_pad_MCC_30K_min_211013_R3.txt
Sample Weight (mg):	4.1
Heating Rate (C/s):	0.5
Combustor Temp (C):	900
N2 Flow Rate (cc/min):	80
O2 Flow Rate (cc/min):	20
Calibration File:	C:\MCC\MCC Cal\Coeff1 JN10440_30_210304.txt.txt
T Correction Coefficients:	0	1.024463	0
Time Shift (s):	14
*
Time (s)	Temperature (C)	N2 flow rate (cc/min)	O2 flow rate (cc/min)	Flow Rate (cc/min)	Oxygen (%)	HRR (W/g)	Heating rate (C/s)
0.000	108.931	79.991	19.995	103.299	20.077	-0.385	-0.001
0.500	108.952	79.989	19.996	103.293	20.077	-0.324	-0.011
1.000	108.921	79.991	19.997	103.294	20.076	-0.300	-0.007
1.500	108.917	79.991	19.997	103.299	20.080	-0.616	-0.022
2.000	108.909	79.989	19.997	103.299	20.077	-0.402	-0.023
2.500	108.922	79.989	19.995	103.300	20.075	-0.235	-0.003
3.000	108.911	79.990	19.997	103.302	20.074	-0.166	0.004
3.500	108.954	79.991	19.998	103.300	20.074	-0.127	0.017
4.000	108.948	79.988	19.996	103.298	20.078	-0.413	0.034
4.500	108.937	79.990	19.998	103.298	20.076	-0.246	0.010
5.000	108.965	79.990	19.996	103.301	20.079	-0.527	0.000
5.500	108.927	79.989	19.997	103.299	20.075	-0.171	0.004
6.000	108.904	79.989	19.997	103.296	20.074	-0.151	-0.035
6.500	108.890	79.989	19.996	103.291	20.073	-0.067	-0.049
7.000	108.914	79.990	19.998	103.286	20.076	-0.259	-0.013
7.500	108.922	79.989	19.996	103.283	20.075	-0.220	0.021
8.000	108.893	79.992	19.996	103.289	20.072	0.006	0.006
8.500	108.907	79.989	19.998	103.293	20.071	0.104	-0.018
9.001	108.916	79.989	19.997	103.300	20.074	-0.166	0.004
9.501	108.884	79.990	19.998	103.308	20.074	-0.121	-0.000
10.000	108.887	79.987	19.996	103.311	20.072	0.067	-0.026
10.500	108.890	79.989	19.998	103.313	20.076	-0.314	-0.012
11.000	108.906	79.987	19.996	103.313	20.078	-0.450	0.012
11.500	108.917	79.990	19.996	103.313	20.074	-0.160	0.023
12.000	108.907	79.989	19.998	103.314	20.072	-0.002	0.014
12.501	108.902	79.988	19.997	103.316	20.070	0.179	-0.007
13.001	108.904	79.990	19.996	103.315	20.071	0.112	-0.009
13.500	108.906	79.988	19.997	103.314	20.069	0.281	0.001
14.000	108.907	79.987	19.997	103.314	20.070	0.151	0.004
14.500	108.934	79.988	19.995	103.314	20.070	0.173	0.015
15.000	108.929	79.991	19.996	103.316	20.067	0.448	0.025
15.500	108.966	79.991	19.996	103.323	20.063	0.742	0.027
16.000	108.923	79.989	19.997	103.331	20.065	0.584	0.013
16.500	108.920	79.989	19.997	103.341	20.064	0.636	-0.026
17.000	108.908	79.989	19.997	103.350	20.061	0.898	-0.030
17.500	108.961	79.991	19.996	103.353	20.064	0.690	0.013
18.000	108.978	79.988	19.996	103.356	20.064	0.653	0.055
18.500	108.964	79.989	19.996	103.361	20.063	0.757	0.037
19.000	108.939	79.988	19.997	103.368	20.059	1.047	-0.018
19.500	108.995	79.988	19.998	103.375	20.060	0.969	-0.004
20.000	108.995	79.989	19.996	103.383	20.055	1.387	0.043
20.500	109.010	79.989	19.997	103.395	20.061	0.887	0.036
21.000	109.019	79.990	19.998	103.402	20.056	1.318	0.020
21.500	109.059	79.989	19.998	103.404	20.053	1.536	0.037
22.000	109.066	79.989	19.996	103.405	20.055	1.350	0.049
22.500	109.058	79.991	19.996	103.408	20.055	1.341	0.023
23.001	109.105	79.990	19.997	103.408	20.057	1.233	0.019
23.501	109.130	79.991	19.996	103.410	20.055	1.402	0.055
24.000	109.149	79.990	19.997	103.415	20.053	1.512	0.058
24.500	109.174	79.990	19.997	103.423	20.054	1.408	0.044
25.000	109.250	79.991	19.998	103.427	20.052	1.607	0.072
25.500	109.234	79.991	19.997	103.429	20.049	1.874	0.080
26.000	109.297	79.990	19.997	103.435	20.045	2.170	0.054
26.500	109.318	79.990	19.997	103.442	20.047	2.027	0.066
27.000	109.346	79.991	19.997	103.444	20.049	1.869	0.067
27.500	109.392	79.992	19.997	103.445	20.050	1.735	0.061
28.000	109.421	79.991	19.996	103.450	20.046	2.107	0.075
28.500	109.435	79.992	19.996	103.452	20.043	2.302	0.059
29.000	109.510	79.991	19.995	103.445	20.044	2.198	0.066
29.500	109.540	79.990	19.996	103.449	20.048	1.908	0.097
30.000	109.576	79.990	19.996	103.457	20.043	2.284	0.085
30.500	109.630	79.990	19.996	103.459	20.047	2.001	0.078
31.000	109.720	79.990	19.996	103.461	20.042	2.404	0.117
31.500	109.726	79.989	19.997	103.469	20.045	2.187	0.120
32.001	109.792	79.990	19.998	103.470	20.044	2.213	0.084
32.500	109.881	79.990	19.997	103.470	20.042	2.384	0.113
33.000	109.911	79.989	19.997	103.470	20.039	2.603	0.138
33.500	109.927	79.988	19.996	103.470	20.042	2.423	0.083
34.000	109.995	79.989	19.997	103.470	20.041	2.493	0.065
34.500	110.032	79.988	19.998	103.469	20.045	2.155	0.094
35.000	110.112	79.991	19.998	103.470	20.038	2.696	0.111
35.500	110.191	79.990	19.997	103.470	20.039	2.662	0.138
36.000	110.265	79.989	19.997	103.471	20.039	2.655	0.156
36.500	110.323	79.990	19.998	103.477	20.034	2.997	0.143
37.000	110.392	79.991	19.997	103.483	20.039	2.666	0.129
37.501	110.483	79.991	19.999	103.483	20.042	2.415	0.143
38.001	110.531	79.988	19.997	103.479	20.038	2.710	0.149
38.501	110.598	79.990	19.997	103.471	20.039	2.617	0.128
39.000	110.687	79.987	19.998	103.459	20.041	2.461	0.136
39.500	110.751	79.991	19.996	103.453	20.038	2.671	0.154
40.001	110.842	79.990	19.997	103.450	20.038	2.727	0.154
40.501	110.900	79.990	19.997	103.453	20.041	2.446	0.152
41.001	110.988	79.989	19.997	103.460	20.038	2.680	0.147
41.500	111.081	79.991	19.998	103.464	20.038	2.710	0.164
42.000	111.156	79.987	19.997	103.466	20.039	2.651	0.175
42.500	111.238	79.990	19.998	103.468	20.044	2.214	0.163
43.001	111.324	79.989	19.998	103.471	20.040	2.589	0.163
43.501	111.377	79.991	19.996	103.471	20.038	2.679	0.153
44.001	111.481	79.991	19.997	103.475	20.034	2.987	0.148
44.501	111.574	79.992	19.997	103.480	20.039	2.660	0.177
45.000	111.636	79.992	19.996	103.481	20.034	3.021	0.176
45.500	111.717	79.989	19.996	103.480	20.039	2.640	0.149
46.001	111.827	79.992	19.997	103.486	20.038	2.738	0.167
46.501	111.956	79.990	19.995	103.491	20.040	2.530	0.215
47.001	112.032	79.989	19.996	103.494	20.036	2.880	0.222
47.501	112.113	79.991	19.996	103.501	20.036	2.837	0.181
48.000	112.196	79.991	19.996	103.508	20.035	2.956	0.161
48.501	112.319	79.991	19.996	103.511	20.037	2.785	0.185
49.001	112.455	79.991	19.996	103.510	20.035	2.926	0.232
49.500	112.505	79.991	19.995	103.510	20.035	2.978	0.222
50.000	112.627	79.991	19.995	103.515	20.032	3.209	0.179
50.500	112.738	79.992	19.997	103.515	20.027	3.584	0.203
51.000	112.815	79.991	19.996	103.515	20.032	3.145	0.210
51.500	112.925	79.991	19.997	103.516	20.035	2.958	0.188
52.000	113.029	79.991	19.997	103.515	20.033	3.127	0.201
52.500	113.120	79.991	19.995	103.511	20.031	3.298	0.205
53.000	113.276	79.993	19.993	103.509	20.034	2.985	0.221
53.500	113.355	79.992	19.996	103.509	20.028	3.504	0.241
54.000	113.469	79.991	19.997	103.509	20.033	3.119	0.214
54.500	113.633	79.992	19.996	103.509	20.027	3.560	0.235
55.000	113.721	79.992	19.996	103.509	20.032	3.214	0.264
55.500	113.836	79.992	19.999	103.509	20.033	3.106	0.227
56.000	113.982	79.992	19.995	103.508	20.032	3.210	0.232
56.500	114.104	79.993	19.996	103.504	20.038	2.721	0.265
57.000	114.176	79.993	19.996	103.501	20.036	2.894	0.232
57.501	114.335	79.988	19.996	103.498	20.033	3.082	0.212
58.001	114.452	79.989	19.998	103.494	20.032	3.166	0.253
58.500	114.583	79.993	19.996	103.488	20.035	2.967	0.262
59.000	114.697	79.993	19.996	103.488	20.036	2.900	0.247
59.500	114.843	79.991	19.996	103.491	20.034	3.021	0.253
60.000	114.972	79.992	19.996	103.492	20.037	2.818	0.268
60.500	115.075	79.990	19.997	103.497	20.037	2.820	0.254
61.000	115.207	79.990	19.996	103.502	20.038	2.712	0.234
61.500	115.345	79.988	19.996	103.504	20.035	2.963	0.252
62.000	115.471	79.991	19.997	103.503	20.033	3.071	0.267
62.501	115.598	79.990	19.996	103.504	20.035	2.974	0.259
63.001	115.731	79.990	19.997	103.504	20.042	2.379	0.257
63.501	115.865	79.988	19.997	103.506	20.040	2.560	0.264
64.000	115.984	79.991	19.998	103.506	20.036	2.840	0.260
64.501	116.134	79.990	19.997	103.508	20.038	2.690	0.261
65.001	116.260	79.989	19.996	103.508	20.035	2.969	0.272
65.500	116.420	79.991	19.998	103.508	20.033	3.069	0.281
66.000	116.539	79.990	19.997	103.508	20.034	3.030	0.282
66.500	116.697	79.989	19.997	103.508	20.034	3.047	0.278
67.000	116.845	79.987	19.997	103.507	20.034	3.008	0.291
67.500	116.975	79.990	19.996	103.508	20.033	3.127	0.292
68.000	117.139	79.990	19.997	103.508	20.031	3.227	0.286
68.500	117.256	79.991	19.998	103.506	20.036	2.900	0.288
69.000	117.463	79.989	19.997	103.506	20.039	2.653	0.303
69.500	117.582	79.991	19.996	103.507	20.035	2.945	0.325
70.000	117.684	79.988	19.998	103.506	20.036	2.844	0.273
70.500	117.859	79.990	19.996	103.506	20.040	2.571	0.249
71.000	118.005	79.990	19.996	103.508	20.034	2.987	0.300
71.500	118.139	79.991	19.998	103.507	20.036	2.855	0.301
72.000	118.277	79.990	19.997	103.506	20.034	3.002	0.276
72.500	118.462	79.989	19.997	103.506	20.035	2.974	0.297
73.000	118.635	79.992	19.997	103.507	20.036	2.837	0.340
73.500	118.741	79.989	19.997	103.506	20.036	2.829	0.318
74.000	118.893	79.990	19.997	103.507	20.038	2.720	0.269
74.500	119.048	79.991	19.998	103.507	20.036	2.831	0.283
75.000	119.199	79.990	19.995	103.507	20.037	2.788	0.307
75.501	119.391	79.989	19.995	103.506	20.035	2.924	0.324
76.001	119.528	79.990	19.996	103.506	20.038	2.720	0.336
76.500	119.633	79.992	19.997	103.504	20.034	3.036	0.285
77.001	119.812	79.989	19.996	103.502	20.039	2.662	0.263
77.501	119.980	79.988	19.997	103.501	20.035	2.916	0.316
78.001	120.141	79.989	19.997	103.502	20.037	2.812	0.338
78.501	120.282	79.991	19.998	103.502	20.034	3.063	0.315
79.000	120.446	79.992	19.994	103.501	20.039	2.613	0.304
79.500	120.598	79.991	19.996	103.503	20.035	2.974	0.311
80.000	120.733	79.990	19.998	103.504	20.037	2.757	0.301
80.500	120.920	79.990	19.996	103.503	20.034	3.043	0.305
81.001	121.073	79.990	19.996	103.503	20.039	2.643	0.331
81.501	121.271	79.993	19.997	103.504	20.036	2.857	0.345
82.000	121.406	79.991	19.996	103.503	20.036	2.855	0.342
82.500	121.585	79.991	19.997	103.503	20.035	2.970	0.324
83.000	121.712	79.989	19.997	103.504	20.038	2.682	0.310
83.500	121.900	79.991	19.996	103.505	20.037	2.786	0.311
84.000	122.034	79.993	19.996	103.503	20.039	2.595	0.318
84.500	122.202	79.992	19.996	103.504	20.038	2.747	0.312
85.000	122.420	79.990	19.996	103.504	20.034	3.039	0.344
85.500	122.524	79.988	19.996	103.504	20.037	2.805	0.354
86.000	122.698	79.992	19.996	103.505	20.033	3.084	0.300
86.500	122.843	79.990	19.996	103.508	20.036	2.829	0.299
87.000	123.063	79.989	19.996	103.507	20.035	2.974	0.342
87.500	123.241	79.991	19.996	103.507	20.036	2.868	0.381
88.000	123.385	79.991	19.996	103.515	20.037	2.810	0.360
88.500	123.562	79.991	19.997	103.519	20.038	2.691	0.321
89.000	123.718	79.992	19.996	103.525	20.035	2.957	0.327
89.500	123.896	79.993	19.996	103.526	20.035	2.918	0.334
90.000	124.052	79.990	19.996	103.523	20.033	3.067	0.335
90.501	124.233	79.992	19.996	103.516	20.039	2.602	0.336
91.001	124.389	79.986	19.996	103.511	20.036	2.886	0.337
91.501	124.592	79.989	19.997	103.506	20.036	2.862	0.347
92.001	124.727	79.991	19.997	103.506	20.033	3.076	0.348
92.500	124.949	79.991	19.997	103.510	20.037	2.775	0.347
93.000	125.065	79.990	19.996	103.510	20.035	2.974	0.348
93.500	125.227	79.990	19.998	103.514	20.038	2.714	0.308
94.000	125.426	79.989	19.996	103.519	20.032	3.201	0.320
94.500	125.613	79.992	19.996	103.519	20.033	3.136	0.374
95.000	125.765	79.988	19.996	103.520	20.034	3.052	0.362
95.500	125.941	79.990	19.997	103.520	20.036	2.885	0.333
96.000	126.147	79.990	19.999	103.514	20.033	3.101	0.355
96.500	126.306	79.991	19.997	103.510	20.033	3.088	0.373
97.000	126.489	79.989	19.997	103.510	20.034	3.023	0.354
97.501	126.703	79.990	19.997	103.511	20.038	2.729	0.370
98.001	126.862	79.989	19.999	103.516	20.031	3.255	0.385
98.500	127.004	79.989	19.997	103.518	20.030	3.331	0.337
99.000	127.175	79.990	19.997	103.518	20.027	3.537	0.307
99.500	127.387	79.991	19.999	103.519	20.034	3.017	0.348
100.001	127.552	79.990	19.999	103.525	20.032	3.151	0.380
100.501	127.716	79.991	19.997	103.524	20.035	2.926	0.353
101.001	127.901	79.991	19.996	103.529	20.038	2.742	0.339
101.501	128.105	79.991	19.996	103.530	20.037	2.775	0.369
102.000	128.296	79.989	19.995	103.529	20.032	3.184	0.392
102.500	128.443	79.989	19.997	103.521	20.037	2.788	0.367
103.000	128.648	79.990	19.998	103.516	20.035	2.959	0.345
103.500	128.822	79.990	19.997	103.511	20.033	3.087	0.366
104.001	129.048	79.989	19.997	103.513	20.031	3.245	0.390
104.501	129.215	79.991	19.998	103.512	20.033	3.093	0.397
105.001	129.406	79.993	19.997	103.512	20.035	2.918	0.375
105.500	129.552	79.991	19.996	103.511	20.034	3.011	0.347
106.000	129.753	79.991	19.996	103.506	20.034	3.060	0.342
106.500	129.957	79.992	19.997	103.503	20.031	3.277	0.376
107.000	130.130	79.990	19.997	103.503	20.032	3.203	0.391
107.500	130.320	79.989	19.998	103.504	20.033	3.136	0.370
108.000	130.505	79.993	19.993	103.505	20.032	3.212	0.369
108.500	130.655	79.990	19.997	103.511	20.030	3.327	0.354
109.000	130.880	79.993	19.996	103.513	20.033	3.134	0.355
109.500	131.040	79.992	19.996	103.512	20.033	3.095	0.380
110.000	131.243	79.992	19.995	103.512	20.037	2.758	0.374
110.500	131.460	79.992	19.997	103.511	20.033	3.097	0.391
111.000	131.633	79.991	19.997	103.511	20.031	3.225	0.405
111.500	131.813	79.991	19.997	103.510	20.031	3.294	0.372
112.000	131.996	79.992	19.995	103.511	20.031	3.225	0.358
112.500	132.212	79.990	19.997	103.513	20.031	3.296	0.381
113.000	132.346	79.992	19.997	103.516	20.032	3.160	0.374
113.501	132.576	79.990	19.996	103.517	20.028	3.469	0.357
114.001	132.754	79.989	19.996	103.517	20.032	3.149	0.386
114.500	132.948	79.990	19.997	103.517	20.032	3.143	0.390
115.001	133.153	79.991	19.997	103.515	20.033	3.136	0.385
115.501	133.374	79.991	19.995	103.513	20.037	2.801	0.413
116.000	133.543	79.990	19.996	103.512	20.035	2.957	0.408
116.501	133.712	79.990	19.996	103.512	20.037	2.821	0.364
117.001	133.918	79.993	19.995	103.511	20.033	3.117	0.357
117.500	134.110	79.991	19.998	103.511	20.031	3.262	0.387
118.000	134.309	79.991	19.997	103.511	20.034	3.002	0.395
118.500	134.470	79.991	19.995	103.513	20.036	2.866	0.375
119.000	134.693	79.989	19.996	103.516	20.036	2.861	0.372
119.500	134.881	79.990	19.997	103.519	20.037	2.749	0.397
120.000	135.096	79.990	19.998	103.518	20.034	3.030	0.407
120.500	135.253	79.991	19.996	103.518	20.032	3.210	0.387
121.000	135.472	79.991	19.996	103.516	20.035	2.907	0.374
121.500	135.634	79.989	19.997	103.514	20.035	2.937	0.379
122.000	135.861	79.990	19.998	103.514	20.035	2.941	0.385
122.500	136.060	79.989	19.997	103.514	20.036	2.887	0.407
123.000	136.222	79.989	19.997	103.514	20.035	2.924	0.393
123.500	136.480	79.988	19.998	103.513	20.035	2.922	0.391
124.000	136.655	79.989	19.997	103.513	20.033	3.136	0.427
124.500	136.852	79.989	19.996	103.512	20.038	2.680	0.403
125.000	137.102	79.990	19.998	103.514	20.030	3.303	0.409
125.500	137.259	79.990	19.996	103.517	20.035	2.944	0.427
126.000	137.471	79.988	19.998	103.519	20.036	2.903	0.388
126.500	137.681	79.992	19.997	103.519	20.031	3.249	0.396
127.000	137.851	79.990	19.997	103.522	20.034	3.032	0.401
127.501	138.096	79.992	19.997	103.524	20.035	2.956	0.397
128.001	138.305	79.993	19.998	103.522	20.036	2.829	0.435
128.500	138.477	79.990	19.997	103.522	20.031	3.270	0.418
129.000	138.647	79.991	19.998	103.521	20.037	2.820	0.362
129.500	138.908	79.991	19.998	103.517	20.033	3.074	0.386
130.000	139.109	79.990	19.997	103.514	20.031	3.286	0.446
130.500	139.324	79.993	19.996	103.515	20.036	2.868	0.439
131.000	139.501	79.991	19.998	103.513	20.033	3.141	0.404
131.500	139.729	79.992	19.998	103.515	20.030	3.331	0.398
132.000	139.940	79.993	19.996	103.514	20.033	3.076	0.422
132.500	140.145	79.990	19.996	103.513	20.034	3.031	0.428
133.000	140.335	79.992	19.998	103.512	20.034	3.052	0.406
133.500	140.546	79.991	19.997	103.518	20.033	3.128	0.398
134.000	140.743	79.993	19.997	103.516	20.033	3.139	0.404
134.500	141.000	79.992	19.999	103.515	20.030	3.347	0.431
135.000	141.208	79.994	19.997	103.516	20.035	2.925	0.460
135.500	141.405	79.993	19.997	103.517	20.036	2.896	0.435
136.000	141.654	79.994	19.999	103.516	20.030	3.351	0.425
136.500	141.815	79.989	19.996	103.517	20.032	3.206	0.428
137.000	142.000	79.992	19.996	103.516	20.029	3.429	0.378
137.500	142.217	79.992	19.996	103.516	20.031	3.243	0.374
138.000	142.432	79.992	19.996	103.514	20.030	3.323	0.417
138.500	142.647	79.993	19.996	103.507	20.030	3.358	0.431
139.000	142.885	79.992	19.995	103.507	20.029	3.453	0.441
139.500	143.059	79.989	19.998	103.509	20.029	3.390	0.433
140.000	143.307	79.994	19.995	103.513	20.028	3.483	0.418
140.500	143.509	79.990	19.996	103.515	20.032	3.145	0.436
141.000	143.717	79.993	19.996	103.521	20.029	3.392	0.429
141.500	143.957	79.992	19.996	103.521	20.029	3.441	0.429
142.000	144.143	79.990	19.996	103.520	20.034	2.989	0.437
142.500	144.365	79.991	19.997	103.520	20.032	3.176	0.417
143.000	144.616	79.989	19.996	103.524	20.030	3.377	0.441
143.500	144.830	79.990	19.999	103.525	20.036	2.836	0.470
144.000	145.040	79.990	19.997	103.532	20.031	3.250	0.445
144.500	145.222	79.990	19.996	103.537	20.034	3.057	0.408
145.000	145.454	79.990	19.999	103.538	20.033	3.091	0.403
145.500	145.710	79.990	19.996	103.532	20.028	3.511	0.451
146.000	145.877	79.991	19.995	103.529	20.032	3.202	0.455
146.500	146.125	79.989	19.996	103.530	20.031	3.247	0.419
147.000	146.354	79.988	19.997	103.527	20.030	3.364	0.446
147.500	146.575	79.989	19.997	103.523	20.031	3.245	0.464
148.000	146.748	79.987	19.998	103.526	20.032	3.158	0.422
148.500	147.007	79.989	19.996	103.527	20.032	3.154	0.413
149.000	147.221	79.991	19.996	103.527	20.028	3.503	0.452
149.500	147.383	79.990	19.997	103.530	20.030	3.312	0.424
150.000	147.638	79.990	19.998	103.533	20.027	3.550	0.396
150.500	147.831	79.992	19.996	103.533	20.030	3.334	0.433
151.000	148.041	79.990	19.996	103.529	20.030	3.367	0.426
151.500	148.290	79.990	19.996	103.521	20.031	3.299	0.431
152.000	148.476	79.991	19.996	103.515	20.031	3.232	0.447
152.500	148.764	79.989	19.998	103.513	20.026	3.622	0.454
153.000	148.963	79.991	19.997	103.519	20.033	3.126	0.480
153.500	149.200	79.987	19.996	103.525	20.029	3.420	0.462
154.000	149.408	79.991	19.997	103.532	20.030	3.334	0.441
154.500	149.617	79.990	19.996	103.535	20.030	3.314	0.431
155.000	149.854	79.989	19.995	103.538	20.029	3.409	0.432
155.500	150.060	79.987	19.996	103.536	20.030	3.336	0.445
156.000	150.337	79.990	19.996	103.534	20.030	3.371	0.463
156.500	150.588	79.986	19.996	103.533	20.031	3.278	0.506
157.000	150.796	79.990	19.996	103.532	20.029	3.442	0.493
157.501	151.021	79.988	19.996	103.528	20.029	3.433	0.446
158.001	151.201	79.991	19.997	103.524	20.027	3.556	0.419
158.501	151.454	79.990	19.996	103.521	20.028	3.468	0.419
159.000	151.682	79.990	19.997	103.517	20.028	3.515	0.457
159.500	151.885	79.989	19.996	103.520	20.027	3.583	0.456
160.000	152.110	79.990	19.996	103.528	20.028	3.479	0.430
160.500	152.396	79.989	19.997	103.535	20.029	3.431	0.469
161.000	152.569	79.990	19.996	103.538	20.029	3.438	0.485
161.500	152.813	79.987	19.997	103.542	20.029	3.392	0.438
162.000	153.066	79.989	19.997	103.543	20.034	3.050	0.457
162.500	153.223	79.990	19.998	103.539	20.030	3.368	0.453
163.000	153.512	79.988	19.998	103.533	20.029	3.399	0.428
163.500	153.701	79.990	19.996	103.533	20.034	3.028	0.462
164.000	153.950	79.989	19.996	103.528	20.030	3.366	0.458
164.500	154.172	79.990	19.995	103.524	20.029	3.405	0.455
165.000	154.413	79.989	19.997	103.525	20.028	3.481	0.468
165.500	154.654	79.990	19.997	103.530	20.027	3.542	0.473
166.000	154.870	79.989	19.998	103.530	20.031	3.258	0.469
166.501	155.102	79.991	19.995	103.532	20.029	3.384	0.452
167.000	155.321	79.991	19.996	103.533	20.029	3.457	0.450
167.500	155.550	79.992	19.995	103.532	20.030	3.334	0.450
168.000	155.801	79.990	19.996	103.528	20.030	3.349	0.464
168.500	155.991	79.989	19.997	103.524	20.030	3.375	0.460
169.000	156.226	79.991	19.995	103.522	20.031	3.297	0.433
169.500	156.484	79.991	19.996	103.525	20.032	3.212	0.459
170.000	156.731	79.989	19.996	103.526	20.029	3.401	0.499
170.500	156.940	79.987	19.995	103.529	20.031	3.281	0.481
171.000	157.214	79.989	19.997	103.536	20.031	3.283	0.470
171.500	157.427	79.989	19.998	103.535	20.030	3.355	0.485
172.000	157.662	79.990	19.995	103.535	20.031	3.294	0.468
172.500	157.870	79.990	19.996	103.533	20.032	3.156	0.446
173.000	158.091	79.989	19.996	103.530	20.031	3.290	0.436
173.500	158.346	79.990	19.995	103.526	20.035	2.983	0.452
174.000	158.622	79.990	19.997	103.525	20.027	3.604	0.503
174.500	158.873	79.988	19.998	103.521	20.027	3.552	0.529
175.000	159.074	79.989	19.995	103.520	20.029	3.450	0.489
175.500	159.343	79.988	19.997	103.522	20.030	3.327	0.460
176.000	159.568	79.989	19.999	103.527	20.029	3.426	0.482
176.500	159.808	79.988	19.996	103.534	20.031	3.281	0.480
177.000	160.049	79.988	19.998	103.538	20.032	3.219	0.473
177.500	160.310	79.990	19.995	103.541	20.034	3.043	0.492
178.000	160.545	79.990	19.995	103.540	20.030	3.318	0.499
178.500	160.769	79.987	19.997	103.538	20.029	3.413	0.477
179.000	161.019	79.990	19.996	103.533	20.032	3.169	0.466
179.500	161.258	79.988	19.995	103.529	20.031	3.225	0.481
180.000	161.537	79.989	19.995	103.526	20.028	3.530	0.503
180.500	161.787	79.990	19.996	103.524	20.031	3.281	0.524
181.000	162.014	79.989	19.995	103.520	20.029	3.389	0.503
181.500	162.226	79.991	19.996	103.517	20.034	3.039	0.458
182.000	162.501	79.990	19.996	103.515	20.030	3.368	0.463
182.500	162.704	79.990	19.994	103.513	20.034	3.036	0.482
183.000	162.955	79.990	19.995	103.514	20.029	3.420	0.465
183.500	163.181	79.989	19.995	103.514	20.034	2.993	0.465
184.000	163.436	79.991	19.998	103.515	20.034	3.043	0.479
184.500	163.686	79.991	19.997	103.516	20.031	3.283	0.493
185.000	163.927	79.992	19.996	103.517	20.030	3.303	0.498
185.500	164.218	79.990	19.995	103.515	20.032	3.153	0.511
186.000	164.435	79.991	19.997	103.513	20.030	3.350	0.520
186.500	164.648	79.990	19.998	103.513	20.030	3.324	0.469
187.000	164.922	79.991	19.996	103.514	20.030	3.316	0.459
187.500	165.185	79.992	19.997	103.515	20.027	3.582	0.512
188.000	165.426	79.991	19.998	103.515	20.028	3.510	0.520
188.500	165.654	79.991	19.996	103.517	20.032	3.192	0.487
189.000	165.908	79.990	19.996	103.517	20.028	3.461	0.476
189.500	166.184	79.992	19.996	103.515	20.030	3.318	0.506
190.000	166.405	79.991	19.997	103.513	20.030	3.333	0.514
190.500	166.647	79.990	19.997	103.512	20.031	3.281	0.480
191.000	166.899	79.991	19.996	103.510	20.029	3.452	0.478
191.500	167.136	79.991	19.997	103.509	20.033	3.115	0.492
192.000	167.386	79.989	19.997	103.508	20.030	3.344	0.488
192.500	167.672	79.990	19.998	103.507	20.028	3.463	0.511
193.000	167.929	79.991	19.997	103.507	20.026	3.638	0.539
193.500	168.185	79.992	19.998	103.507	20.030	3.339	0.528
194.000	168.395	79.992	19.997	103.507	20.027	3.573	0.490
194.500	168.633	79.991	19.997	103.508	20.032	3.203	0.457
195.000	168.905	79.992	19.998	103.510	20.030	3.335	0.479
195.500	169.142	79.992	19.998	103.510	20.028	3.458	0.509
196.000	169.362	79.991	19.999	103.509	20.030	3.333	0.483
196.500	169.627	79.991	19.997	103.509	20.033	3.067	0.472
197.000	169.862	79.991	19.996	103.509	20.032	3.192	0.493
197.500	170.107	79.991	19.996	103.507	20.030	3.311	0.489
198.000	170.412	79.990	19.997	103.507	20.028	3.471	0.515
198.500	170.631	79.990	19.996	103.507	20.034	3.054	0.537
199.000	170.905	79.992	19.996	103.507	20.027	3.543	0.509
199.500	171.102	79.990	19.998	103.506	20.031	3.274	0.482
200.000	171.365	79.990	19.997	103.507	20.030	3.309	0.466
200.500	171.632	79.990	19.997	103.508	20.031	3.270	0.495
201.000	171.884	79.990	19.997	103.509	20.031	3.290	0.524
201.500	172.112	79.991	19.997	103.512	20.030	3.376	0.500
202.000	172.340	79.992	19.997	103.513	20.032	3.151	0.468
202.500	172.624	79.989	19.996	103.513	20.028	3.510	0.483
203.000	172.888	79.990	19.997	103.512	20.032	3.170	0.530
203.500	173.086	79.990	19.996	103.510	20.028	3.512	0.505
204.000	173.381	79.992	19.997	103.507	20.029	3.387	0.478
204.500	173.647	79.992	19.998	103.507	20.027	3.601	0.527
205.000	173.859	79.992	19.999	103.507	20.026	3.674	0.520
205.500	174.089	79.990	19.996	103.507	20.026	3.631	0.460
206.000	174.332	79.990	19.996	103.506	20.028	3.458	0.457
206.501	174.608	79.990	19.997	103.506	20.029	3.380	0.496
207.000	174.844	79.992	19.996	103.506	20.027	3.562	0.515
207.500	175.083	79.991	19.995	103.505	20.030	3.354	0.493
208.000	175.366	79.991	19.998	103.506	20.026	3.633	0.498
208.500	175.561	79.992	19.996	103.506	20.026	3.624	0.500
209.000	175.852	79.992	19.995	103.504	20.031	3.287	0.482
209.500	176.093	79.990	19.997	103.501	20.028	3.480	0.509
210.000	176.360	79.993	19.994	103.496	20.029	3.400	0.520
210.500	176.639	79.993	19.996	103.495	20.027	3.536	0.527
211.000	176.849	79.991	19.995	103.495	20.027	3.560	0.517
211.500	177.124	79.992	19.997	103.498	20.031	3.292	0.487
212.000	177.376	79.992	19.998	103.502	20.031	3.266	0.506
212.500	177.613	79.991	19.996	103.507	20.027	3.553	0.508
213.000	177.897	79.993	19.998	103.506	20.028	3.475	0.505
213.500	178.125	79.992	19.997	103.499	20.029	3.419	0.516
214.000	178.372	79.993	19.998	103.494	20.030	3.333	0.493
214.500	178.607	79.992	19.996	103.493	20.027	3.540	0.478
215.000	178.853	79.991	19.998	103.492	20.028	3.462	0.481
215.500	179.128	79.991	19.996	103.493	20.029	3.445	0.501
216.000	179.389	79.991	19.997	103.493	20.030	3.352	0.529
216.501	179.622	79.991	19.998	103.490	20.029	3.397	0.516
217.001	179.880	79.992	19.997	103.487	20.029	3.401	0.493
217.500	180.123	79.991	19.998	103.484	20.026	3.615	0.496
218.000	180.368	79.992	19.999	103.483	20.031	3.247	0.494
218.500	180.632	79.990	19.997	103.483	20.028	3.479	0.498
219.000	180.869	79.990	19.998	103.484	20.031	3.297	0.505
219.500	181.151	79.991	19.998	103.486	20.028	3.464	0.511
220.000	181.340	79.990	19.997	103.489	20.029	3.425	0.495
220.500	181.661	79.990	19.999	103.488	20.028	3.525	0.490
221.000	181.916	79.991	19.997	103.494	20.027	3.605	0.543
221.500	182.143	79.990	19.997	103.500	20.027	3.564	0.529
222.000	182.395	79.990	19.999	103.496	20.029	3.387	0.480
222.500	182.686	79.989	19.997	103.496	20.027	3.536	0.511
223.000	182.901	79.990	19.999	103.498	20.030	3.302	0.525
223.500	183.205	79.990	19.997	103.496	20.031	3.237	0.512
224.001	183.435	79.988	19.998	103.494	20.026	3.620	0.526
224.501	183.671	79.990	19.997	103.497	20.030	3.311	0.500
225.001	183.932	79.989	19.997	103.496	20.027	3.566	0.482
225.500	184.195	79.990	19.998	103.492	20.026	3.624	0.511
226.000	184.462	79.989	19.998	103.487	20.033	3.131	0.527
226.500	184.735	79.988	19.998	103.484	20.033	3.122	0.535
227.000	184.944	79.988	19.998	103.480	20.028	3.494	0.512
227.500	185.198	79.990	19.998	103.476	20.034	3.062	0.472
228.000	185.455	79.989	19.995	103.473	20.030	3.354	0.486
228.500	185.746	79.989	19.995	103.474	20.030	3.341	0.529
229.000	185.952	79.989	19.997	103.472	20.030	3.356	0.523
229.500	186.274	79.990	19.997	103.475	20.033	3.107	0.513
230.000	186.534	79.989	19.996	103.474	20.032	3.217	0.555
230.500	186.787	79.990	19.997	103.480	20.028	3.507	0.547
231.000	187.017	79.990	19.997	103.486	20.027	3.566	0.498
231.500	187.282	79.990	19.995	103.488	20.029	3.404	0.490
232.000	187.549	79.989	19.998	103.488	20.032	3.207	0.514
232.500	187.815	79.989	19.997	103.492	20.029	3.441	0.532
233.000	188.033	79.990	19.999	103.489	20.029	3.404	0.508
233.500	188.289	79.990	19.998	103.487	20.027	3.609	0.479
234.000	188.541	79.989	19.995	103.489	20.026	3.676	0.491
234.500	188.781	79.990	19.996	103.489	20.030	3.362	0.500
235.000	189.049	79.989	19.996	103.487	20.030	3.371	0.500
235.500	189.324	79.991	19.997	103.488	20.028	3.514	0.525
236.000	189.594	79.991	19.997	103.485	20.029	3.395	0.543
236.500	189.840	79.990	19.996	103.479	20.030	3.362	0.530
237.000	190.083	79.990	19.998	103.478	20.029	3.397	0.503
237.500	190.358	79.988	19.995	103.479	20.031	3.256	0.504
238.000	190.580	79.989	19.996	103.479	20.026	3.682	0.508
238.500	190.823	79.988	19.996	103.480	20.026	3.652	0.481
239.000	191.083	79.989	19.997	103.484	20.028	3.475	0.484
239.500	191.336	79.988	19.997	103.483	20.029	3.401	0.508
240.000	191.602	79.991	19.995	103.480	20.032	3.196	0.515
240.500	191.851	79.988	19.996	103.478	20.030	3.304	0.517
241.000	192.073	79.988	19.996	103.476	20.028	3.490	0.493
241.500	192.371	79.988	19.996	103.474	20.028	3.494	0.495
242.000	192.636	79.989	19.997	103.479	20.028	3.460	0.541
242.500	192.849	79.989	19.996	103.485	20.030	3.375	0.520
243.000	193.122	79.990	19.996	103.486	20.027	3.585	0.482
243.500	193.362	79.990	19.997	103.491	20.030	3.356	0.500
244.000	193.632	79.991	19.996	103.493	20.028	3.464	0.512
244.500	193.879	79.989	19.997	103.488	20.030	3.306	0.514
245.000	194.122	79.989	19.996	103.482	20.026	3.658	0.504
245.500	194.373	79.990	19.998	103.479	20.029	3.425	0.492
246.000	194.616	79.988	19.996	103.474	20.034	3.061	0.494
246.500	194.857	79.989	19.996	103.474	20.028	3.494	0.489
247.000	195.151	79.988	19.994	103.474	20.026	3.613	0.509
247.500	195.350	79.989	19.998	103.474	20.030	3.306	0.514
248.000	195.595	79.989	19.998	103.474	20.026	3.669	0.469
248.500	195.843	79.990	19.997	103.473	20.027	3.572	0.468
249.000	196.126	79.989	19.994	103.471	20.029	3.444	0.512
249.500	196.383	79.990	19.999	103.472	20.024	3.786	0.536
250.000	196.639	79.989	19.996	103.471	20.024	3.773	0.527
250.500	196.864	79.988	19.998	103.471	20.026	3.676	0.497
251.000	197.128	79.990	19.995	103.471	20.027	3.607	0.485
251.501	197.348	79.989	19.996	103.471	20.027	3.583	0.486
252.000	197.608	79.992	19.998	103.472	20.026	3.672	0.482
252.500	197.883	79.988	19.996	103.477	20.026	3.682	0.508
253.000	198.114	79.990	19.998	103.478	20.025	3.732	0.521
253.500	198.376	79.990	19.999	103.477	20.027	3.535	0.500
254.000	198.619	79.989	19.998	103.476	20.028	3.494	0.499
254.500	198.887	79.989	19.996	103.473	20.025	3.743	0.508
255.000	199.141	79.989	19.998	103.468	20.026	3.680	0.516
255.500	199.359	79.989	19.997	103.468	20.023	3.853	0.497
256.000	199.652	79.988	19.997	103.469	20.025	3.732	0.492
256.500	199.891	79.990	19.996	103.471	20.026	3.652	0.522
257.000	200.107	79.989	19.998	103.470	20.025	3.745	0.494
257.500	200.383	79.989	19.996	103.470	20.024	3.784	0.474
258.000	200.611	79.988	19.997	103.470	20.020	4.147	0.498
258.500	200.873	79.989	19.999	103.469	20.024	3.810	0.497
259.000	201.150	79.990	19.996	103.467	20.028	3.487	0.514
259.500	201.380	79.989	19.997	103.466	20.024	3.771	0.523
260.000	201.597	79.988	19.997	103.465	20.024	3.844	0.477
260.500	201.891	79.990	19.995	103.465	20.022	3.976	0.479
261.000	202.090	79.989	19.997	103.466	20.020	4.097	0.502
261.500	202.384	79.989	19.997	103.467	20.024	3.790	0.492
262.000	202.648	79.989	19.995	103.469	20.023	3.907	0.525
262.500	202.860	79.990	19.995	103.472	20.020	4.141	0.517
263.000	203.119	79.991	19.997	103.472	20.023	3.914	0.474
263.500	203.351	79.989	19.995	103.471	20.023	3.855	0.481
264.000	203.606	79.989	19.998	103.472	20.022	3.983	0.489
264.500	203.855	79.990	19.997	103.469	20.019	4.171	0.495
265.000	204.112	79.990	19.997	103.467	20.019	4.201	0.505
265.500	204.349	79.990	19.997	103.466	20.020	4.123	0.500
266.000	204.640	79.991	19.995	103.466	20.023	3.851	0.511
266.500	204.847	79.992	19.996	103.465	20.019	4.227	0.513
267.000	205.086	79.990	19.995	103.467	20.024	3.816	0.472
267.500	205.379	79.990	19.997	103.468	20.022	3.954	0.489
268.000	205.598	79.991	19.996	103.469	20.020	4.090	0.522
268.500	205.858	79.993	19.997	103.469	20.020	4.095	0.496
269.000	206.092	79.991	19.998	103.469	20.022	3.982	0.486
269.500	206.331	79.991	19.997	103.468	20.022	3.954	0.483
270.000	206.619	79.991	19.995	103.467	20.023	3.924	0.500
270.500	206.834	79.993	19.997	103.460	20.020	4.106	0.515
271.000	207.080	79.992	19.997	103.458	20.020	4.097	0.482
271.500	207.288	79.992	19.997	103.458	20.022	3.976	0.457
272.000	207.593	79.992	19.997	103.458	20.020	4.087	0.484
272.500	207.858	79.992	19.997	103.456	20.019	4.167	0.542
273.000	208.079	79.991	19.996	103.461	20.022	3.987	0.528
273.500	208.326	79.993	19.996	103.463	20.021	4.085	0.477
274.000	208.600	79.991	19.995	103.463	20.023	3.870	0.494
274.500	208.812	79.992	19.995	103.463	20.019	4.219	0.504
275.000	209.062	79.992	19.995	103.464	20.019	4.208	0.474
275.500	209.328	79.991	19.995	103.465	20.021	4.080	0.489
276.000	209.572	79.991	19.997	103.465	20.022	3.977	0.513
276.500	209.806	79.991	19.996	103.465	20.019	4.225	0.494
277.000	210.030	79.990	19.996	103.466	20.016	4.459	0.468
277.500	210.291	79.991	19.998	103.467	20.018	4.268	0.472
278.000	210.545	79.992	19.997	103.466	20.019	4.175	0.500
278.500	210.808	79.991	19.996	103.459	20.022	3.985	0.516
279.000	210.990	79.990	19.996	103.452	20.018	4.274	0.481
279.500	211.292	79.993	19.997	103.452	20.017	4.348	0.465
280.000	211.555	79.989	19.996	103.452	20.018	4.316	0.525
280.500	211.814	79.989	19.996	103.452	20.019	4.166	0.544
281.000	212.006	79.990	19.995	103.456	20.019	4.240	0.486
281.500	212.262	79.989	19.995	103.461	20.017	4.368	0.449
282.000	212.535	79.991	19.995	103.461	20.023	3.918	0.488
282.500	212.785	79.988	19.998	103.462	20.021	4.031	0.526
283.000	213.040	79.990	19.996	103.464	20.021	4.057	0.514
283.501	213.260	79.991	19.998	103.467	20.018	4.286	0.490
284.001	213.484	79.989	19.998	103.466	20.019	4.201	0.460
284.500	213.794	79.990	19.998	103.466	20.016	4.422	0.489
285.000	214.018	79.989	19.997	103.467	20.020	4.106	0.534
285.500	214.219	79.990	19.997	103.468	20.024	3.795	0.479
286.000	214.503	79.989	19.996	103.468	20.018	4.279	0.455
286.500	214.725	79.989	19.999	103.470	20.019	4.229	0.496
287.000	215.047	79.990	19.997	103.471	20.019	4.231	0.525
287.501	215.226	79.990	19.996	103.469	20.019	4.195	0.522
288.001	215.492	79.989	19.996	103.467	20.019	4.216	0.473
288.500	215.710	79.993	19.994	103.466	20.016	4.406	0.465
289.000	215.998	79.991	19.995	103.462	20.016	4.400	0.495
289.500	216.220	79.991	19.999	103.456	20.021	4.037	0.508
290.000	216.453	79.990	19.998	103.452	20.018	4.250	0.483
290.500	216.751	79.991	19.996	103.454	20.012	4.761	0.493
291.000	216.927	79.992	19.998	103.454	20.017	4.339	0.502
291.500	217.216	79.992	19.997	103.455	20.020	4.104	0.469
292.000	217.444	79.992	19.997	103.462	20.014	4.618	0.491
292.500	217.697	79.990	19.996	103.466	20.014	4.586	0.499
293.000	217.939	79.991	19.997	103.466	20.016	4.432	0.488
293.500	218.177	79.990	19.998	103.468	20.009	4.988	0.487
294.000	218.450	79.994	19.997	103.469	20.015	4.532	0.496
294.500	218.689	79.992	19.997	103.467	20.013	4.698	0.512
295.000	218.924	79.991	19.995	103.463	20.010	4.876	0.493
295.500	219.207	79.992	19.996	103.462	20.013	4.666	0.495
296.000	219.413	79.991	19.996	103.462	20.013	4.705	0.503
296.500	219.674	79.992	19.995	103.463	20.012	4.768	0.478
297.000	219.977	79.993	19.996	103.463	20.014	4.620	0.516
297.500	220.145	79.992	19.995	103.462	20.012	4.731	0.518
298.000	220.439	79.992	19.997	103.460	20.010	4.945	0.466
298.500	220.677	79.993	19.995	103.457	20.009	4.952	0.497
299.000	220.938	79.992	19.995	103.456	20.011	4.828	0.515
299.500	221.185	79.993	19.996	103.452	20.012	4.727	0.504
300.000	221.395	79.992	19.997	103.452	20.012	4.773	0.483
300.500	221.619	79.991	19.996	103.455	20.013	4.656	0.445
301.000	221.861	79.992	19.996	103.451	20.012	4.749	0.450
301.500	222.118	79.990	19.996	103.450	20.005	5.283	0.483
302.000	222.489	79.991	19.996	103.453	20.012	4.716	0.564
302.500	222.531	79.992	19.996	103.454	20.008	5.056	0.520
303.000	222.819	79.991	19.997	103.450	20.011	4.831	0.372
303.500	223.211	79.989	19.997	103.452	20.008	5.077	0.505
304.000	223.330	79.990	19.997	103.451	20.013	4.664	0.595
304.500	223.550	79.989	19.997	103.449	20.011	4.835	0.425
305.000	224.030	79.989	19.997	103.447	20.012	4.744	0.519
305.500	224.254	79.990	19.996	103.449	20.014	4.605	0.702
306.000	224.538	79.989	19.996	103.449	20.009	5.014	0.606
306.500	224.447	79.989	19.997	103.448	20.010	4.891	0.351
307.000	224.962	79.988	19.997	103.450	20.009	5.017	0.309
307.500	225.139	79.989	19.997	103.453	20.010	4.902	0.558
308.000	225.305	79.987	19.996	103.453	20.009	5.001	0.518
308.500	225.557	79.988	19.997	103.452	20.010	4.930	0.381
309.000	225.824	79.988	19.997	103.455	20.007	5.131	0.468
309.500	226.136	79.989	19.997	103.457	20.006	5.209	0.548
310.000	226.179	79.987	19.998	103.459	20.007	5.155	0.467
310.500	226.597	79.989	19.996	103.461	20.005	5.315	0.408
311.000	226.796	79.989	19.997	103.466	20.008	5.038	0.539
311.500	227.110	79.989	19.998	103.465	20.009	5.019	0.565
312.000	227.278	79.989	19.998	103.464	20.009	4.993	0.498
312.500	227.548	79.988	19.997	103.461	20.007	5.166	0.460
313.000	227.751	79.989	19.998	103.463	20.004	5.373	0.455
313.500	228.008	79.990	19.999	103.462	20.006	5.243	0.466
314.000	228.348	79.988	19.998	103.463	20.007	5.148	0.528
314.500	228.533	79.989	19.998	103.462	20.006	5.230	0.561
315.000	228.801	79.990	19.997	103.457	20.005	5.310	0.489
315.500	229.033	79.990	19.999	103.453	20.004	5.406	0.477
316.000	229.332	79.990	19.997	103.449	20.006	5.228	0.515
316.500	229.573	79.988	19.996	103.449	20.006	5.255	0.536
317.000	229.790	79.990	19.999	103.450	20.006	5.235	0.499
317.500	230.054	79.989	19.999	103.456	20.003	5.423	0.469
318.000	230.325	79.990	19.997	103.457	20.003	5.462	0.508
318.500	230.576	79.989	19.997	103.459	20.004	5.402	0.528
319.001	230.856	79.990	19.998	103.458	20.001	5.642	0.526
319.500	231.060	79.989	19.998	103.459	20.007	5.120	0.508
320.000	231.320	79.990	19.998	103.459	20.005	5.330	0.474
320.500	231.556	79.990	19.997	103.461	20.005	5.289	0.480
321.000	231.822	79.989	19.997	103.463	20.003	5.436	0.499
321.500	232.058	79.991	19.998	103.459	20.002	5.536	0.502
322.000	232.279	79.990	19.997	103.459	20.005	5.319	0.480
322.500	232.570	79.991	19.996	103.457	20.003	5.475	0.485
323.000	232.791	79.991	19.996	103.457	20.003	5.464	0.513
323.501	233.023	79.990	19.996	103.453	20.003	5.498	0.483
324.001	233.301	79.990	19.996	103.453	20.000	5.674	0.481
324.501	233.556	79.990	19.996	103.447	20.002	5.510	0.521
325.001	233.784	79.990	19.997	103.443	19.999	5.784	0.507
325.500	234.065	79.990	19.996	103.444	20.001	5.637	0.496
326.000	234.300	79.991	19.996	103.448	20.002	5.577	0.513
326.500	234.568	79.990	19.996	103.452	20.002	5.538	0.510
327.000	234.776	79.990	19.996	103.455	20.002	5.578	0.489
327.500	235.038	79.990	19.997	103.459	20.004	5.414	0.472
328.000	235.267	79.990	19.997	103.460	20.001	5.591	0.481
328.500	235.504	79.990	19.997	103.459	20.001	5.597	0.479
329.000	235.781	79.990	19.995	103.458	20.000	5.688	0.490
329.500	236.035	79.990	19.997	103.456	19.997	5.914	0.523
330.000	236.275	79.989	19.996	103.453	19.997	5.951	0.513
330.500	236.533	79.990	19.996	103.453	19.998	5.834	0.496
331.000	236.761	79.989	19.997	103.454	19.999	5.780	0.492
331.500	237.038	79.988	19.996	103.455	19.997	5.907	0.496
332.000	237.288	79.990	19.998	103.455	19.999	5.805	0.517
332.500	237.520	79.990	19.996	103.456	19.996	6.047	0.505
333.000	237.795	79.990	19.997	103.450	19.998	5.881	0.494
333.500	238.089	79.989	19.999	103.448	19.998	5.889	0.538
334.001	238.265	79.989	19.996	103.446	20.001	5.606	0.520
334.500	238.525	79.988	19.998	103.445	19.998	5.817	0.453
335.000	238.809	79.989	19.997	103.446	19.996	5.983	0.489
335.500	239.042	79.990	19.997	103.452	19.998	5.849	0.531
336.000	239.232	79.990	19.997	103.455	19.999	5.812	0.470
336.500	239.512	79.988	19.998	103.456	20.000	5.728	0.447
337.000	239.740	79.989	19.997	103.455	19.997	5.972	0.489
337.501	239.970	79.990	19.996	103.454	19.998	5.886	0.483
338.001	240.279	79.988	19.997	103.447	20.000	5.686	0.498
338.500	240.478	79.988	19.997	103.440	19.996	5.974	0.524
339.000	240.752	79.988	19.996	103.435	19.997	5.935	0.490
339.500	241.002	79.990	19.997	103.434	19.997	5.964	0.498
340.000	241.275	79.989	19.997	103.440	19.995	6.056	0.523
340.500	241.472	79.989	19.996	103.447	19.998	5.834	0.496
341.000	241.742	79.988	19.997	103.452	19.993	6.283	0.468
341.500	242.017	79.988	19.997	103.453	19.993	6.249	0.506
342.000	242.231	79.989	19.998	103.451	19.992	6.320	0.518
342.500	242.531	79.990	19.998	103.444	19.993	6.242	0.502
343.000	242.779	79.990	19.996	103.437	19.997	5.967	0.531
343.500	243.010	79.990	19.996	103.434	19.992	6.322	0.513
344.000	243.271	79.990	19.996	103.437	19.995	6.088	0.485
344.500	243.460	79.989	19.997	103.439	19.992	6.313	0.471
345.000	243.754	79.989	19.997	103.445	19.990	6.467	0.467
345.500	243.999	79.989	19.996	103.450	19.996	6.000	0.511
346.000	244.301	79.990	19.997	103.453	19.997	5.954	0.543
346.500	244.504	79.990	19.997	103.452	19.992	6.337	0.526
347.000	244.739	79.990	19.998	103.450	19.997	5.945	0.472
347.500	245.036	79.990	19.998	103.445	19.993	6.250	0.485
348.000	245.297	79.990	19.997	103.446	19.996	5.995	0.545
348.500	245.538	79.990	19.997	103.447	19.995	6.052	0.530
349.000	245.762	79.991	19.997	103.445	19.992	6.300	0.483
349.500	246.025	79.991	19.998	103.445	19.991	6.370	0.476
350.000	246.322	79.991	19.997	103.448	19.990	6.482	0.523
350.500	246.585	79.990	19.996	103.449	19.994	6.134	0.560
351.000	246.844	79.991	19.996	103.445	19.991	6.402	0.542
351.500	247.048	79.990	19.996	103.444	19.994	6.183	0.493
352.000	247.337	79.990	19.997	103.444	19.993	6.216	0.478
352.500	247.537	79.992	19.996	103.442	19.991	6.391	0.491
353.000	247.810	79.991	19.996	103.438	19.992	6.343	0.481
353.500	248.068	79.992	19.996	103.437	19.993	6.225	0.502
354.000	248.339	79.989	19.997	103.437	19.994	6.194	0.530
354.500	248.613	79.991	19.996	103.437	19.995	6.123	0.537
355.001	248.808	79.992	19.996	103.436	19.992	6.300	0.508
355.500	249.045	79.990	19.996	103.436	19.994	6.203	0.451
356.000	249.307	79.991	19.995	103.437	19.993	6.283	0.465
356.500	249.607	79.991	19.997	103.436	19.992	6.339	0.530
357.000	249.830	79.991	19.997	103.435	19.994	6.138	0.543
357.500	250.082	79.990	19.996	103.434	19.989	6.584	0.499
358.000	250.382	79.992	19.996	103.434	19.993	6.279	0.513
358.500	250.630	79.991	19.996	103.433	19.993	6.273	0.550
359.000	250.835	79.991	19.996	103.435	19.990	6.515	0.501
359.500	251.116	79.991	19.996	103.439	19.989	6.556	0.469
360.000	251.381	79.992	19.996	103.439	19.992	6.361	0.516
360.500	251.674	79.991	19.996	103.438	19.988	6.642	0.553
361.000	251.928	79.991	19.996	103.437	19.988	6.679	0.552
361.500	252.186	79.990	19.997	103.436	19.987	6.759	0.529
362.000	252.431	79.991	19.997	103.432	19.990	6.491	0.508
362.500	252.689	79.991	19.997	103.431	19.988	6.616	0.503
363.000	252.909	79.991	19.997	103.432	19.992	6.307	0.490
363.500	253.171	79.992	19.996	103.434	19.987	6.691	0.480
364.000	253.403	79.990	19.996	103.435	19.988	6.646	0.488
364.500	253.687	79.989	19.996	103.436	19.983	7.020	0.505
365.000	253.892	79.990	19.997	103.436	19.986	6.834	0.502
365.500	254.155	79.990	19.995	103.436	19.984	6.925	0.478
366.000	254.437	79.989	19.995	103.434	19.982	7.107	0.507
366.500	254.666	79.991	19.996	103.433	19.982	7.091	0.528
367.000	254.937	79.990	19.995	103.433	19.984	6.985	0.505
367.500	255.224	79.990	19.997	103.432	19.985	6.895	0.529
368.000	255.475	79.990	19.996	103.435	19.982	7.135	0.548
368.500	255.711	79.991	19.995	103.441	19.987	6.743	0.513
369.000	255.973	79.991	19.997	103.443	19.985	6.916	0.493
369.500	256.190	79.990	19.995	103.444	19.987	6.750	0.488
370.000	256.440	79.991	19.996	103.444	19.988	6.613	0.473
370.500	256.704	79.991	19.995	103.441	19.985	6.847	0.491
371.000	256.987	79.990	19.997	103.435	19.983	7.020	0.531
371.500	257.213	79.991	19.996	103.434	19.986	6.821	0.528
372.000	257.469	79.991	19.997	103.437	19.980	7.301	0.495
372.500	257.707	79.991	19.996	103.437	19.979	7.331	0.488
373.000	257.963	79.992	19.996	103.437	19.984	6.944	0.494
373.500	258.206	79.991	19.997	103.436	19.981	7.204	0.497
374.000	258.493	79.992	19.998	103.435	19.984	6.929	0.515
374.500	258.722	79.992	19.997	103.432	19.980	7.234	0.523
375.000	258.998	79.992	19.995	103.431	19.979	7.316	0.511
375.500	259.236	79.991	19.997	103.431	19.983	7.024	0.510
376.000	259.501	79.992	19.996	103.430	19.983	7.011	0.509
376.500	259.734	79.992	19.997	103.430	19.978	7.405	0.500
377.000	259.995	79.992	19.998	103.430	19.984	6.942	0.496
377.500	260.232	79.992	19.996	103.430	19.981	7.187	0.496
378.000	260.477	79.991	19.996	103.430	19.982	7.107	0.490
378.500	260.700	79.993	19.998	103.431	19.979	7.381	0.475
379.000	260.965	79.993	19.996	103.431	19.980	7.308	0.478
379.500	261.181	79.993	19.997	103.431	19.975	7.643	0.484
380.000	261.465	79.992	19.996	103.430	19.980	7.236	0.491
380.500	261.686	79.992	19.996	103.430	19.979	7.334	0.503
381.000	261.941	79.992	19.997	103.429	19.980	7.238	0.491
381.500	262.201	79.991	19.997	103.427	19.976	7.550	0.496
382.000	262.434	79.992	19.997	103.427	19.977	7.481	0.504
382.500	262.717	79.992	19.997	103.427	19.977	7.472	0.504
383.000	262.962	79.991	19.997	103.427	19.977	7.528	0.522
383.500	263.206	79.991	19.997	103.427	19.976	7.582	0.509
384.000	263.464	79.991	19.998	103.428	19.978	7.448	0.496
384.500	263.719	79.990	19.995	103.430	19.977	7.500	0.508
385.000	263.982	79.991	19.997	103.431	19.976	7.573	0.516
385.500	264.193	79.988	19.997	103.430	19.977	7.535	0.496
386.000	264.477	79.990	19.998	103.431	19.976	7.597	0.485
386.500	264.686	79.990	19.997	103.430	19.975	7.693	0.494
387.000	264.992	79.990	19.997	103.427	19.975	7.667	0.504
387.500	265.223	79.990	19.997	103.427	19.969	8.116	0.525
388.000	265.458	79.990	19.997	103.428	19.975	7.630	0.501
388.500	265.697	79.988	19.997	103.431	19.971	7.956	0.470
389.000	265.933	79.988	19.997	103.432	19.973	7.820	0.475
389.500	266.228	79.989	19.998	103.432	19.971	7.954	0.503
390.000	266.488	79.989	19.996	103.432	19.972	7.887	0.543
390.500	266.711	79.988	19.997	103.432	19.972	7.904	0.520
391.000	266.972	79.990	19.998	103.428	19.973	7.835	0.484
391.500	267.246	79.989	19.997	103.429	19.972	7.874	0.509
392.000	267.477	79.988	19.996	103.429	19.974	7.736	0.520
392.500	267.726	79.990	19.997	103.430	19.972	7.879	0.492
393.000	267.967	79.989	19.998	103.431	19.973	7.844	0.485
393.500	268.203	79.990	19.997	103.430	19.976	7.614	0.484
394.000	268.465	79.989	19.997	103.430	19.976	7.556	0.487
394.500	268.703	79.989	19.998	103.429	19.969	8.122	0.499
395.000	268.975	79.990	19.996	103.428	19.970	8.057	0.505
395.500	269.187	79.989	19.995	103.428	19.973	7.795	0.497
396.000	269.503	79.990	19.998	103.428	19.969	8.122	0.507
396.500	269.758	79.990	19.997	103.428	19.973	7.820	0.550
397.000	270.008	79.990	19.998	103.429	19.969	8.125	0.538
397.500	270.203	79.990	19.998	103.430	19.970	8.029	0.474
398.000	270.491	79.990	19.997	103.430	19.973	7.789	0.464
398.500	270.765	79.988	19.998	103.430	19.972	7.889	0.523
399.000	271.000	79.990	19.998	103.429	19.970	8.090	0.536
399.501	271.276	79.989	19.998	103.427	19.970	8.021	0.510
400.000	271.497	79.991	19.998	103.424	19.970	8.042	0.504
400.500	271.780	79.990	19.998	103.423	19.971	7.943	0.501
401.000	272.038	79.989	19.997	103.423	19.969	8.127	0.522
401.500	272.227	79.990	19.997	103.423	19.970	8.082	0.494
402.000	272.494	79.990	19.998	103.425	19.969	8.144	0.452
402.500	272.744	79.988	19.998	103.428	19.968	8.194	0.486
403.000	273.004	79.989	19.998	103.430	19.969	8.108	0.513
403.500	273.235	79.989	19.997	103.430	19.970	8.060	0.501
404.000	273.469	79.989	19.998	103.430	19.969	8.134	0.478
404.500	273.782	79.989	19.998	103.425	19.969	8.123	0.506
405.000	274.029	79.989	19.998	103.421	19.968	8.192	0.553
405.500	274.276	79.990	19.998	103.419	19.966	8.365	0.527
406.000	274.517	79.989	19.998	103.418	19.965	8.458	0.491
406.500	274.760	79.989	19.998	103.418	19.970	8.090	0.486
407.000	275.007	79.991	19.997	103.422	19.967	8.276	0.487
407.500	275.290	79.989	19.999	103.424	19.964	8.497	0.510
408.000	275.530	79.989	19.997	103.423	19.967	8.259	0.526
408.500	275.791	79.990	19.998	103.423	19.967	8.303	0.512
409.000	276.016	79.990	19.998	103.424	19.964	8.525	0.494
409.500	276.291	79.989	19.998	103.423	19.964	8.556	0.493
410.000	276.515	79.990	19.997	103.421	19.967	8.302	0.500
410.500	276.791	79.990	19.997	103.423	19.966	8.363	0.499
411.001	277.043	79.989	19.997	103.424	19.964	8.527	0.514
411.500	277.291	79.989	19.997	103.423	19.964	8.542	0.514
412.000	277.557	79.989	19.996	103.424	19.968	8.220	0.507
412.500	277.763	79.988	19.997	103.427	19.964	8.523	0.493
413.000	278.020	79.990	19.996	103.429	19.965	8.412	0.467
413.500	278.260	79.989	19.998	103.430	19.964	8.525	0.480
414.000	278.540	79.989	19.997	103.430	19.966	8.410	0.509
414.500	278.794	79.990	19.996	103.430	19.964	8.523	0.527
415.000	279.026	79.988	19.996	103.430	19.966	8.385	0.510
415.501	279.255	79.989	19.996	103.430	19.966	8.385	0.474
416.000	279.506	79.989	19.997	103.428	19.969	8.127	0.470
416.500	279.743	79.990	19.996	103.426	19.963	8.640	0.484
417.000	279.992	79.989	19.996	103.426	19.970	8.095	0.487
417.500	280.243	79.988	19.997	103.424	19.966	8.352	0.493
418.000	280.497	79.988	19.997	103.425	19.968	8.235	0.502
418.500	280.769	79.988	19.997	103.427	19.969	8.145	0.516
419.000	280.995	79.989	19.996	103.430	19.969	8.147	0.513
419.500	281.225	79.989	19.997	103.431	19.967	8.300	0.477
420.000	281.476	79.988	19.996	103.432	19.963	8.573	0.468
420.500	281.745	79.987	19.997	103.432	19.966	8.335	0.500
421.000	281.982	79.989	19.996	103.430	19.968	8.208	0.512
421.500	282.216	79.990	19.996	103.429	19.970	8.068	0.488
422.000	282.485	79.990	19.996	103.428	19.968	8.248	0.487
422.500	282.736	79.989	19.997	103.427	19.970	8.086	0.512
423.000	282.962	79.989	19.997	103.426	19.970	8.047	0.499
423.500	283.251	79.990	19.995	103.425	19.966	8.385	0.496
424.000	283.491	79.990	19.996	103.424	19.970	8.025	0.521
424.500	283.753	79.990	19.996	103.425	19.967	8.304	0.515
425.000	283.960	79.988	19.996	103.426	19.969	8.118	0.485
425.500	284.218	79.989	19.996	103.427	19.969	8.133	0.467
426.000	284.450	79.989	19.997	103.431	19.970	8.083	0.477
426.500	284.728	79.989	19.997	103.432	19.969	8.150	0.500
427.000	284.973	79.990	19.995	103.432	19.967	8.267	0.517
427.500	285.214	79.990	19.997	103.431	19.969	8.161	0.505
428.000	285.473	79.991	19.995	103.431	19.970	8.062	0.493
428.500	285.768	79.991	19.997	103.426	19.968	8.235	0.527
429.000	285.975	79.990	19.996	103.420	19.970	8.025	0.528
429.500	286.247	79.991	19.997	103.412	19.968	8.237	0.490
430.000	286.500	79.990	19.997	103.408	19.969	8.135	0.502
430.500	286.756	79.991	19.997	103.405	19.970	8.092	0.517
431.000	287.011	79.990	19.995	103.404	19.970	8.031	0.510
431.500	287.240	79.991	19.997	103.410	19.969	8.172	0.498
432.000	287.503	79.989	19.996	103.414	19.974	7.763	0.488
432.500	287.753	79.990	19.996	103.420	19.970	8.066	0.503
433.000	287.991	79.991	19.997	103.422	19.970	8.070	0.501
433.500	288.259	79.990	19.996	103.426	19.969	8.100	0.497
434.000	288.494	79.991	19.996	103.427	19.969	8.110	0.504
434.500	288.753	79.990	19.996	103.428	19.970	8.037	0.498
435.000	288.995	79.991	19.996	103.426	19.971	7.996	0.498
435.500	289.206	79.990	19.996	103.422	19.970	8.031	0.477
436.000	289.512	79.991	19.997	103.418	19.970	8.039	0.484
436.500	289.759	79.990	19.997	103.416	19.971	8.010	0.535
437.000	290.017	79.991	19.997	103.415	19.971	7.981	0.529
437.500	290.259	79.991	19.995	103.417	19.969	8.133	0.503
438.001	290.482	79.991	19.997	103.421	19.971	7.940	0.482
438.501	290.775	79.991	19.997	103.424	19.973	7.828	0.490
439.000	291.019	79.991	19.999	103.425	19.971	7.977	0.526
439.500	291.262	79.991	19.998	103.427	19.969	8.152	0.512
440.000	291.517	79.991	19.997	103.426	19.971	7.988	0.492
440.500	291.761	79.991	19.997	103.420	19.970	8.081	0.499
441.000	292.000	79.990	19.997	103.414	19.970	8.052	0.491
441.500	292.283	79.990	19.997	103.415	19.972	7.898	0.502
442.000	292.528	79.992	19.997	103.415	19.973	7.853	0.525
442.500	292.767	79.992	19.998	103.416	19.970	8.021	0.507
443.000	293.013	79.991	19.996	103.419	19.968	8.188	0.485
443.500	293.235	79.990	19.996	103.420	19.969	8.117	0.476
444.000	293.496	79.991	19.996	103.412	19.968	8.230	0.475
444.500	293.761	79.989	19.996	103.407	19.970	8.053	0.505
445.000	294.041	79.991	19.996	103.402	19.973	7.847	0.536
445.500	294.264	79.990	19.997	103.403	19.973	7.850	0.524
446.000	294.558	79.989	19.996	103.407	19.971	7.964	0.510
446.500	294.795	79.991	19.997	103.414	19.970	8.052	0.524
447.000	295.043	79.990	19.997	103.413	19.971	7.983	0.508
447.500	295.280	79.992	19.997	103.417	19.975	7.665	0.485
448.000	295.524	79.991	19.996	103.417	19.973	7.832	0.483
448.500	295.767	79.990	19.996	103.416	19.971	8.014	0.484
449.000	296.045	79.993	19.996	103.410	19.971	8.001	0.504
449.500	296.280	79.991	19.996	103.413	19.971	7.985	0.517
450.000	296.519	79.992	19.996	103.411	19.970	8.026	0.494
450.500	296.787	79.991	19.996	103.413	19.975	7.675	0.491
451.000	297.043	79.992	19.995	103.413	19.971	7.943	0.516
451.500	297.280	79.993	19.996	103.414	19.974	7.753	0.509
452.000	297.539	79.992	19.996	103.409	19.973	7.818	0.494
452.500	297.800	79.993	19.995	103.407	19.975	7.641	0.508
453.000	298.015	79.992	19.996	103.404	19.973	7.795	0.498
453.500	298.283	79.992	19.996	103.404	19.967	8.291	0.479
454.000	298.575	79.992	19.997	103.406	19.968	8.189	0.521
454.500	298.814	79.992	19.996	103.409	19.972	7.897	0.546
455.000	299.029	79.993	19.996	103.414	19.970	8.071	0.493
455.500	299.290	79.992	19.997	103.415	19.969	8.103	0.465
456.000	299.523	79.992	19.996	103.417	19.970	8.066	0.485
456.500	299.785	79.991	19.996	103.417	19.969	8.126	0.494
457.000	300.049	79.993	19.996	103.414	19.970	8.031	0.510
457.500	300.302	79.992	19.997	103.412	19.973	7.789	0.521
458.000	300.562	79.993	19.997	103.413	19.975	7.694	0.515
458.500	300.773	79.991	19.997	103.413	19.975	7.695	0.492
459.000	301.042	79.993	19.996	103.410	19.975	7.658	0.476
459.500	301.301	79.991	19.996	103.417	19.973	7.790	0.504
460.000	301.563	79.993	19.996	103.418	19.975	7.667	0.524
460.500	301.848	79.991	19.998	103.412	19.972	7.869	0.534
461.000	302.032	79.993	19.998	103.405	19.972	7.895	0.508
461.500	302.287	79.992	19.995	103.402	19.971	8.001	0.454
462.000	302.535	79.991	19.997	103.398	19.974	7.759	0.471
462.500	302.807	79.991	19.996	103.398	19.971	8.005	0.511
463.000	303.070	79.991	19.995	103.399	19.974	7.764	0.527
463.500	303.294	79.990	19.996	103.406	19.974	7.771	0.511
464.000	303.566	79.990	19.998	103.412	19.974	7.775	0.492
464.500	303.818	79.990	19.996	103.417	19.971	7.956	0.510
465.000	304.065	79.990	19.997	103.414	19.974	7.770	0.511
465.500	304.338	79.990	19.996	103.412	19.971	7.982	0.510
466.000	304.566	79.989	19.997	103.407	19.971	7.982	0.511
466.501	304.807	79.988	19.996	103.401	19.972	7.894	0.485
467.001	305.061	79.990	19.998	103.394	19.973	7.840	0.482
467.500	305.300	79.989	19.997	103.391	19.972	7.931	0.494
468.000	305.556	79.990	19.998	103.393	19.973	7.804	0.494
468.500	305.824	79.990	19.998	103.393	19.974	7.719	0.509
469.000	306.048	79.989	19.998	103.396	19.973	7.850	0.508
469.500	306.338	79.989	19.998	103.399	19.976	7.563	0.503
470.000	306.565	79.990	19.997	103.401	19.972	7.867	0.516
470.500	306.816	79.989	19.997	103.404	19.971	7.976	0.497
471.000	307.065	79.989	19.997	103.410	19.971	7.959	0.489
471.500	307.343	79.990	19.997	103.415	19.969	8.164	0.514
472.000	307.578	79.991	19.997	103.417	19.971	7.952	0.520
472.500	307.840	79.990	19.997	103.420	19.971	7.952	0.505
473.000	308.083	79.989	19.997	103.420	19.970	8.060	0.501
473.500	308.337	79.989	19.997	103.414	19.967	8.280	0.501
474.000	308.609	79.990	19.997	103.407	19.972	7.909	0.512
474.500	308.870	79.990	19.997	103.402	19.971	7.946	0.529
475.000	309.098	79.990	19.997	103.399	19.967	8.285	0.511
475.500	309.370	79.990	19.997	103.398	19.965	8.428	0.494
476.001	309.643	79.991	19.997	103.397	19.966	8.361	0.523
476.500	309.873	79.990	19.997	103.397	19.965	8.445	0.524
477.000	310.119	79.991	19.997	103.403	19.965	8.410	0.489
477.500	310.357	79.990	19.997	103.409	19.965	8.454	0.480
478.000	310.649	79.990	19.997	103.411	19.965	8.473	0.507
478.500	310.880	79.989	19.995	103.412	19.961	8.784	0.527
479.000	311.136	79.990	19.997	103.414	19.963	8.568	0.505
479.500	311.398	79.990	19.996	103.408	19.963	8.590	0.502
480.000	311.647	79.990	19.997	103.402	19.964	8.538	0.515
480.500	311.913	79.988	19.997	103.397	19.963	8.613	0.513
481.000	312.181	79.991	19.996	103.395	19.964	8.566	0.524
481.500	312.425	79.991	19.997	103.400	19.965	8.458	0.523
482.000	312.696	79.991	19.997	103.402	19.963	8.592	0.513
482.500	312.949	79.990	19.997	103.401	19.962	8.690	0.520
483.000	313.209	79.990	19.996	103.402	19.963	8.612	0.519
483.500	313.462	79.990	19.997	103.402	19.961	8.739	0.513
484.000	313.700	79.990	19.997	103.397	19.961	8.776	0.502
484.500	313.965	79.990	19.997	103.397	19.960	8.819	0.497
485.000	314.196	79.990	19.996	103.398	19.960	8.864	0.499
485.500	314.461	79.990	19.997	103.400	19.960	8.853	0.496
486.000	314.718	79.989	19.997	103.403	19.963	8.598	0.509
486.500	314.963	79.990	19.996	103.403	19.956	9.165	0.512
487.000	315.190	79.989	19.997	103.401	19.958	8.962	0.487
487.500	315.447	79.989	19.997	103.401	19.957	9.086	0.478
488.000	315.693	79.991	19.997	103.399	19.955	9.207	0.494
488.500	315.944	79.989	19.996	103.400	19.955	9.211	0.500
489.000	316.193	79.990	19.997	103.402	19.957	9.113	0.498
489.500	316.438	79.988	19.997	103.401	19.954	9.290	0.497
490.000	316.666	79.989	19.996	103.400	19.952	9.454	0.483
490.500	316.936	79.990	19.997	103.401	19.955	9.272	0.485
491.000	317.175	79.989	19.997	103.397	19.954	9.290	0.504
491.500	317.453	79.989	19.997	103.394	19.953	9.380	0.513
492.000	317.703	79.990	19.997	103.396	19.953	9.404	0.523
492.500	317.946	79.988	19.996	103.400	19.953	9.421	0.511
493.000	318.183	79.989	19.998	103.401	19.951	9.519	0.486
493.500	318.458	79.989	19.997	103.404	19.952	9.472	0.496
494.000	318.741	79.988	19.997	103.404	19.950	9.650	0.535
494.500	318.979	79.989	19.998	103.401	19.946	9.955	0.539
495.000	319.205	79.989	19.998	103.398	19.946	9.931	0.492
495.500	319.460	79.988	19.998	103.395	19.947	9.891	0.472
496.000	319.739	79.989	19.998	103.392	19.948	9.800	0.508
496.500	319.972	79.988	19.998	103.392	19.943	10.172	0.523
497.000	320.208	79.987	19.998	103.392	19.946	9.945	0.490
497.500	320.493	79.988	19.997	103.398	19.946	9.981	0.495
498.000	320.704	79.988	19.998	103.405	19.943	10.182	0.509
498.500	320.963	79.988	19.997	103.410	19.941	10.372	0.483
499.000	321.233	79.987	19.998	103.410	19.942	10.273	0.500
499.500	321.465	79.988	19.997	103.411	19.943	10.215	0.515
500.000	321.735	79.989	19.997	103.404	19.943	10.191	0.502
500.500	321.936	79.989	19.997	103.397	19.942	10.295	0.487
501.000	322.228	79.988	19.997	103.393	19.938	10.561	0.483
501.500	322.473	79.990	19.997	103.393	19.936	10.725	0.515
502.000	322.715	79.990	19.997	103.392	19.938	10.608	0.512
502.500	322.959	79.988	19.998	103.392	19.938	10.554	0.486
503.000	323.211	79.989	19.998	103.392	19.934	10.865	0.491
503.500	323.452	79.990	19.997	103.391	19.934	10.874	0.494
504.000	323.710	79.991	19.996	103.397	19.932	11.075	0.496
504.500	323.962	79.990	19.997	103.400	19.931	11.150	0.505
505.000	324.220	79.990	19.996	103.404	19.930	11.237	0.510
505.500	324.495	79.990	19.997	103.406	19.929	11.315	0.522
506.000	324.719	79.990	19.996	103.407	19.924	11.659	0.516
506.500	324.973	79.990	19.996	103.401	19.927	11.399	0.488
507.000	325.235	79.991	19.997	103.398	19.929	11.315	0.497
507.500	325.494	79.988	19.996	103.396	19.922	11.819	0.519
508.000	325.729	79.990	19.997	103.393	19.924	11.654	0.508
508.500	325.957	79.991	19.996	103.393	19.925	11.633	0.478
509.000	326.193	79.992	19.996	103.390	19.921	11.890	0.463
509.500	326.465	79.991	19.996	103.388	19.920	12.022	0.486
510.000	326.721	79.992	19.996	103.386	19.923	11.745	0.518
510.500	326.994	79.991	19.996	103.389	19.919	12.095	0.528
511.000	327.216	79.991	19.997	103.390	19.914	12.426	0.512
511.500	327.441	79.991	19.997	103.393	19.913	12.536	0.471
512.000	327.718	79.991	19.997	103.393	19.912	12.629	0.475
512.500	327.967	79.992	19.996	103.393	19.911	12.679	0.514
513.000	328.227	79.991	19.996	103.391	19.911	12.727	0.517
513.500	328.479	79.991	19.996	103.391	19.906	13.120	0.511
514.000	328.723	79.991	19.997	103.389	19.903	13.347	0.504
514.500	329.006	79.992	19.997	103.387	19.905	13.170	0.512
515.000	329.243	79.991	19.997	103.386	19.901	13.470	0.524
515.500	329.524	79.992	19.996	103.385	19.900	13.544	0.519
516.000	329.746	79.991	19.997	103.385	19.901	13.476	0.510
516.500	329.996	79.992	19.996	103.386	19.899	13.649	0.487
517.001	330.230	79.991	19.996	103.389	19.898	13.755	0.478
517.500	330.498	79.992	19.996	103.390	19.891	14.300	0.493
518.000	330.730	79.991	19.997	103.390	19.889	14.441	0.501
518.500	330.946	79.991	19.996	103.391	19.889	14.460	0.474
519.000	331.220	79.990	19.995	103.391	19.890	14.385	0.469
519.500	331.446	79.990	19.997	103.390	19.883	14.923	0.495
520.000	331.699	79.991	19.996	103.389	19.882	14.981	0.490
520.500	331.965	79.991	19.996	103.388	19.883	14.892	0.499
521.000	332.244	79.991	19.997	103.387	19.881	15.095	0.532
521.500	332.486	79.990	19.997	103.387	19.878	15.285	0.533
522.000	332.748	79.991	19.996	103.388	19.878	15.289	0.513
522.500	332.995	79.989	19.996	103.389	19.876	15.460	0.506
523.000	333.228	79.991	19.997	103.390	19.873	15.672	0.494
523.500	333.474	79.991	19.996	103.390	19.871	15.872	0.480
524.000	333.749	79.989	19.996	103.390	19.868	16.043	0.500
524.500	334.006	79.991	19.997	103.389	19.866	16.270	0.526
525.000	334.252	79.990	19.996	103.389	19.864	16.384	0.517
525.500	334.516	79.990	19.996	103.389	19.860	16.717	0.507
526.000	334.763	79.990	19.997	103.388	19.859	16.758	0.511
526.500	335.042	79.990	19.997	103.388	19.859	16.763	0.519
527.000	335.227	79.989	19.997	103.387	19.855	17.111	0.495
527.500	335.490	79.990	19.996	103.387	19.850	17.513	0.456
528.000	335.698	79.990	19.997	103.386	19.845	17.865	0.460
528.500	336.017	79.990	19.997	103.388	19.846	17.819	0.499
529.000	336.229	79.992	19.997	103.389	19.847	17.707	0.528
529.500	336.498	79.990	19.997	103.388	19.838	18.448	0.506
530.000	336.777	79.991	19.997	103.389	19.839	18.397	0.515
530.500	337.023	79.992	19.997	103.389	19.834	18.769	0.537
531.000	337.251	79.991	19.996	103.389	19.830	19.091	0.499
531.500	337.473	79.992	19.996	103.385	19.825	19.457	0.462
532.000	337.740	79.991	19.997	103.381	19.826	19.404	0.469
532.500	338.027	79.991	19.997	103.381	19.821	19.770	0.521
533.000	338.294	79.992	19.996	103.380	19.819	19.925	0.554
533.500	338.534	79.993	19.997	103.381	19.812	20.449	0.531
534.000	338.777	79.994	19.997	103.384	19.815	20.230	0.495
534.500	339.013	79.992	19.996	103.388	19.809	20.691	0.481
535.000	339.247	79.992	19.997	103.388	19.808	20.819	0.475
535.500	339.497	79.992	19.997	103.388	19.798	21.589	0.477
536.000	339.774	79.992	19.996	103.389	19.799	21.538	0.505
536.500	340.018	79.991	19.996	103.390	19.793	21.953	0.524
537.000	340.266	79.991	19.996	103.389	19.791	22.176	0.507
537.500	340.500	79.993	19.997	103.389	19.786	22.517	0.487
538.000	340.815	79.992	19.996	103.389	19.783	22.765	0.515
538.500	341.014	79.993	19.996	103.388	19.775	23.401	0.531
539.000	341.260	79.992	19.997	103.387	19.772	23.621	0.479
539.500	341.520	79.993	19.997	103.387	19.768	23.960	0.475
540.000	341.782	79.992	19.996	103.386	19.764	24.300	0.514
540.500	342.032	79.992	19.995	103.386	19.761	24.506	0.517
541.000	342.286	79.992	19.995	103.387	19.755	24.961	0.508
541.500	342.529	79.993	19.995	103.387	19.751	25.319	0.501
542.000	342.758	79.991	19.996	103.389	19.747	25.572	0.485
542.501	343.006	79.991	19.997	103.390	19.745	25.780	0.475
543.000	343.282	79.991	19.996	103.389	19.737	26.423	0.500
543.500	343.501	79.991	19.995	103.389	19.733	26.680	0.509
544.000	343.799	79.991	19.995	103.389	19.728	27.087	0.506
544.500	344.004	79.990	19.996	103.390	19.725	27.363	0.510
545.000	344.240	79.990	19.995	103.390	19.722	27.592	0.472
545.500	344.484	79.988	19.996	103.392	19.713	28.293	0.461
546.000	344.746	79.989	19.996	103.393	19.712	28.344	0.493
546.501	344.996	79.990	19.996	103.392	19.709	28.627	0.509
547.000	345.261	79.990	19.996	103.389	19.702	29.129	0.514
547.500	345.496	79.989	19.996	103.389	19.697	29.537	0.507
548.000	345.749	79.990	19.996	103.388	19.690	30.071	0.494
548.500	346.029	79.988	19.997	103.387	19.686	30.399	0.510
549.000	346.237	79.990	19.996	103.386	19.681	30.813	0.510
549.500	346.503	79.990	19.996	103.388	19.673	31.405	0.481
550.000	346.741	79.988	19.995	103.384	19.671	31.555	0.489
550.500	347.008	79.990	19.997	103.384	19.663	32.223	0.505
551.000	347.228	79.989	19.996	103.384	19.654	32.876	0.496
551.500	347.502	79.989	19.996	103.386	19.653	32.961	0.490
552.000	347.731	79.989	19.996	103.385	19.647	33.488	0.498
552.500	347.975	79.990	19.996	103.389	19.637	34.290	0.488
553.000	348.192	79.990	19.996	103.390	19.633	34.567	0.467
553.500	348.462	79.988	19.996	103.390	19.631	34.756	0.474
554.000	348.731	79.988	19.997	103.385	19.623	35.382	0.513
554.500	348.974	79.989	19.997	103.386	19.616	35.910	0.526
555.000	349.224	79.989	19.997	103.385	19.611	36.298	0.502
555.500	349.488	79.988	19.997	103.385	19.604	36.833	0.503
556.000	349.744	79.989	19.998	103.384	19.598	37.290	0.517
556.500	349.948	79.990	19.997	103.387	19.593	37.713	0.490
557.000	350.228	79.988	19.997	103.389	19.588	38.146	0.472
557.500	350.480	79.989	19.998	103.390	19.576	39.076	0.508
558.000	350.693	79.989	19.997	103.391	19.572	39.365	0.498
558.500	350.967	79.989	19.997	103.391	19.564	39.965	0.476
559.000	351.212	79.989	19.997	103.390	19.557	40.529	0.504
559.500	351.470	79.988	19.996	103.387	19.551	40.978	0.511
560.000	351.753	79.989	19.997	103.385	19.547	41.353	0.521
560.500	351.949	79.990	19.997	103.383	19.538	42.003	0.510
561.000	352.254	79.988	19.997	103.379	19.532	42.515	0.490
561.500	352.460	79.990	19.996	103.378	19.525	43.090	0.506
562.000	352.717	79.988	19.997	103.379	19.520	43.475	0.487
562.500	352.987	79.989	19.996	103.381	19.510	44.249	0.495
563.000	353.207	79.989	19.997	103.381	19.501	44.928	0.508
563.500	353.470	79.990	19.998	103.380	19.496	45.339	0.486
564.000	353.753	79.990	19.997	103.382	19.485	46.160	0.514
564.500	354.002	79.990	19.997	103.379	19.478	46.747	0.539
565.000	354.220	79.989	19.996	103.376	19.470	47.395	0.499
565.500	354.474	79.990	19.997	103.376	19.461	48.056	0.469
566.000	354.751	79.991	19.997	103.380	19.458	48.347	0.501
566.500	354.951	79.991	19.996	103.378	19.448	49.127	0.504
567.000	355.210	79.991	19.997	103.380	19.440	49.773	0.468
567.500	355.465	79.990	19.997	103.382	19.432	50.337	0.486
568.000	355.737	79.989	19.997	103.386	19.425	50.890	0.520
568.500	355.971	79.990	19.997	103.381	19.416	51.590	0.516
569.000	356.271	79.989	19.997	103.378	19.406	52.398	0.520
569.500	356.494	79.989	19.996	103.377	19.399	52.986	0.529
570.000	356.764	79.991	19.997	103.377	19.391	53.628	0.508
570.500	357.003	79.990	19.997	103.376	19.383	54.226	0.501
571.000	357.229	79.990	19.997	103.378	19.375	54.820	0.487
571.500	357.497	79.989	19.997	103.381	19.363	55.835	0.480
572.000	357.724	79.991	19.998	103.375	19.354	56.495	0.494
572.500	358.000	79.990	19.996	103.370	19.346	57.169	0.499
573.000	358.249	79.990	19.997	103.361	19.338	57.774	0.514
573.500	358.512	79.990	19.997	103.355	19.327	58.633	0.518
574.000	358.733	79.990	19.997	103.353	19.321	59.130	0.498
574.500	359.024	79.990	19.997	103.354	19.312	59.836	0.498
575.000	359.266	79.990	19.997	103.351	19.303	60.489	0.523
575.500	359.507	79.990	19.997	103.357	19.292	61.377	0.508
576.000	359.772	79.990	19.997	103.364	19.283	62.095	0.495
576.500	360.012	79.990	19.998	103.363	19.276	62.614	0.506
577.000	360.252	79.989	19.997	103.362	19.268	63.256	0.493
577.500	360.512	79.988	19.997	103.361	19.260	63.864	0.490
578.000	360.768	79.988	19.998	103.357	19.251	64.575	0.508
578.500	361.004	79.988	19.997	103.352	19.242	65.317	0.504
579.001	361.226	79.989	19.997	103.350	19.231	66.179	0.475
579.501	361.498	79.989	19.998	103.351	19.223	66.772	0.476
580.000	361.769	79.988	19.997	103.351	19.212	67.692	0.518
580.500	362.024	79.989	19.997	103.351	19.203	68.355	0.534
581.000	362.257	79.990	19.998	103.351	19.193	69.144	0.507
581.500	362.490	79.988	19.997	103.351	19.185	69.781	0.477
582.000	362.735	79.986	19.997	103.353	19.173	70.706	0.472
582.500	363.010	79.987	19.997	103.360	19.168	71.113	0.499
583.001	363.244	79.989	19.997	103.374	19.156	72.083	0.515
583.501	363.498	79.989	19.998	103.389	19.144	72.965	0.498
584.000	363.758	79.988	19.998	103.396	19.140	73.294	0.501
584.500	364.013	79.989	19.998	103.394	19.128	74.290	0.515
585.000	364.280	79.989	19.998	103.385	19.117	75.085	0.518
585.500	364.525	79.989	19.998	103.362	19.107	75.915	0.517
586.000	364.750	79.989	19.998	103.332	19.095	76.812	0.491
586.500	365.023	79.990	19.997	103.317	19.088	77.383	0.484
587.000	365.295	79.989	19.999	103.315	19.078	78.170	0.521
587.500	365.511	79.988	19.998	103.316	19.068	78.979	0.516
588.000	365.804	79.989	19.998	103.325	19.059	79.679	0.498
588.500	366.054	79.990	19.998	103.340	19.054	80.081	0.526
589.000	366.293	79.991	19.998	103.347	19.043	80.917	0.516
589.500	366.514	79.990	19.997	103.347	19.033	81.681	0.475
590.000	366.765	79.990	19.998	103.342	19.021	82.694	0.466
590.500	367.056	79.990	19.998	103.339	19.013	83.319	0.507
591.000	367.285	79.990	19.998	103.335	19.005	83.924	0.531
591.500	367.548	79.992	19.997	103.331	18.994	84.790	0.506
592.000	367.785	79.991	19.998	103.325	18.986	85.441	0.496
592.500	368.082	79.991	19.998	103.329	18.980	85.921	0.517
593.001	368.291	79.992	19.997	103.325	18.968	86.805	0.520
593.500	368.562	79.991	19.997	103.326	18.960	87.460	0.493
594.000	368.809	79.991	19.996	103.329	18.953	88.005	0.500
594.500	369.083	79.992	19.998	103.333	18.946	88.596	0.519
595.000	369.305	79.991	19.997	103.331	18.936	89.378	0.508
595.500	369.568	79.991	19.996	103.331	18.926	90.102	0.490
596.000	369.805	79.993	19.996	103.325	18.920	90.566	0.493
596.500	370.087	79.992	19.997	103.319	18.913	91.179	0.510
597.000	370.310	79.992	19.997	103.318	18.905	91.757	0.512
597.500	370.547	79.992	19.996	103.316	18.899	92.253	0.483
598.000	370.829	79.993	19.996	103.316	18.891	92.897	0.489
598.500	371.037	79.992	19.996	103.317	18.886	93.279	0.504
599.000	371.299	79.991	19.997	103.317	18.875	94.121	0.480
599.500	371.523	79.992	19.996	103.315	18.868	94.658	0.478
600.000	371.820	79.993	19.997	103.312	18.863	95.082	0.503
600.500	372.036	79.991	19.996	103.311	18.858	95.470	0.517
601.000	372.304	79.989	19.996	103.311	18.849	96.151	0.499
601.500	372.603	79.990	19.997	103.312	18.846	96.438	0.526
602.000	372.818	79.990	19.996	103.310	18.834	97.328	0.541
602.500	373.119	79.992	19.997	103.312	18.829	97.729	0.515
603.000	373.347	79.991	19.997	103.313	18.824	98.137	0.522
603.500	373.607	79.989	19.997	103.316	18.817	98.711	0.509
604.000	373.874	79.990	19.996	103.317	18.814	98.953	0.508
604.500	374.098	79.990	19.996	103.318	18.809	99.307	0.509
605.000	374.370	79.990	19.996	103.320	18.803	99.751	0.494
605.500	374.603	79.990	19.996	103.320	18.802	99.855	0.501
606.000	374.862	79.990	19.996	103.317	18.796	100.338	0.499
606.501	375.110	79.990	19.996	103.317	18.794	100.464	0.499
607.000	375.338	79.990	19.997	103.316	18.789	100.925	0.491
607.500	375.609	79.989	19.997	103.314	18.785	101.197	0.487
608.000	375.870	79.991	19.996	103.314	18.780	101.616	0.515
608.500	376.093	79.991	19.996	103.314	18.776	101.896	0.508
609.000	376.347	79.991	19.996	103.314	18.776	101.885	0.481
609.500	376.615	79.991	19.996	103.314	18.771	102.335	0.499
610.000	376.886	79.991	19.997	103.311	18.768	102.527	0.530
610.500	377.130	79.991	19.996	103.310	18.769	102.474	0.527
611.000	377.383	79.991	19.997	103.309	18.766	102.716	0.506
611.500	377.643	79.992	19.997	103.305	18.765	102.788	0.506
612.000	377.862	79.990	19.997	103.303	18.764	102.868	0.496
612.500	378.106	79.990	19.997	103.305	18.758	103.265	0.471
613.000	378.384	79.991	19.997	103.301	18.760	103.136	0.492
613.500	378.638	79.991	19.997	103.302	18.760	103.143	0.527
614.000	378.847	79.992	19.996	103.304	18.761	103.054	0.498
614.500	379.106	79.992	19.997	103.304	18.763	102.871	0.466
615.000	379.384	79.991	19.996	103.299	18.761	103.102	0.502
615.500	379.627	79.991	19.996	103.299	18.764	102.846	0.529
616.000	379.888	79.993	19.996	103.294	18.762	102.947	0.512
616.500	380.115	79.992	19.996	103.294	18.766	102.676	0.496
617.000	380.417	79.992	19.996	103.295	18.764	102.799	0.509
617.500	380.647	79.992	19.996	103.301	18.770	102.399	0.531
618.000	380.913	79.992	19.996	103.302	18.772	102.169	0.514
618.500	381.132	79.990	19.997	103.303	18.773	102.109	0.490
619.000	381.386	79.993	19.996	103.301	18.772	102.174	0.479
619.500	381.676	79.992	19.996	103.303	18.778	101.721	0.508
620.000	381.910	79.991	19.995	103.300	18.783	101.332	0.534
620.500	382.164	79.992	19.996	103.297	18.784	101.264	0.506
621.000	382.396	79.991	19.995	103.294	18.787	101.021	0.487
621.500	382.655	79.991	19.996	103.291	18.790	100.789	0.488
622.000	382.890	79.991	19.996	103.285	18.792	100.658	0.493
622.500	383.154	79.990	19.996	103.283	18.799	100.085	0.497
623.000	383.416	79.990	19.996	103.283	18.801	99.886	0.513
623.500	383.664	79.990	19.997	103.283	18.807	99.445	0.518
624.000	383.906	79.992	19.996	103.281	18.814	98.872	0.500
624.500	384.143	79.992	19.996	103.279	18.819	98.484	0.484
625.000	384.399	79.991	19.996	103.277	18.823	98.191	0.485
625.500	384.656	79.992	19.996	103.277	18.829	97.718	0.502
626.000	384.919	79.989	19.996	103.278	18.836	97.209	0.516
626.500	385.152	79.991	19.996	103.276	18.844	96.582	0.508
627.000	385.374	79.990	19.997	103.277	18.847	96.287	0.476
627.500	385.668	79.990	19.996	103.279	18.854	95.789	0.486
628.001	385.897	79.990	19.996	103.281	18.859	95.391	0.519
628.501	386.149	79.989	19.997	103.283	18.868	94.634	0.502
629.001	386.392	79.989	19.996	103.286	18.874	94.198	0.488
629.500	386.658	79.989	19.996	103.287	18.881	93.643	0.502
630.000	386.925	79.990	19.997	103.285	18.892	92.789	0.521
630.500	387.192	79.991	19.996	103.283	18.897	92.398	0.534
631.000	387.430	79.990	19.996	103.281	18.907	91.635	0.520
631.500	387.691	79.990	19.996	103.279	18.915	90.997	0.502
632.000	387.951	79.992	19.996	103.281	18.922	90.407	0.510
632.500	388.178	79.991	19.996	103.281	18.930	89.776	0.504
633.000	388.447	79.990	19.996	103.280	18.938	89.183	0.491
633.500	388.685	79.992	19.996	103.281	18.945	88.609	0.501
634.000	388.940	79.990	19.996	103.282	18.954	87.879	0.500
634.500	389.199	79.991	19.996	103.278	18.962	87.322	0.504
635.000	389.429	79.991	19.996	103.277	18.972	86.505	0.501
635.500	389.714	79.991	19.996	103.279	18.981	85.773	0.502
636.000	389.932	79.990	19.996	103.282	18.990	85.062	0.509
636.500	390.176	79.990	19.996	103.284	18.996	84.623	0.482
637.000	390.451	79.990	19.996	103.285	19.005	83.921	0.490
637.500	390.683	79.991	19.997	103.286	19.010	83.538	0.513
638.000	390.923	79.991	19.997	103.289	19.021	82.650	0.490
638.500	391.190	79.990	19.996	103.290	19.035	81.546	0.490
639.000	391.432	79.990	19.997	103.289	19.045	80.758	0.508
639.500	391.676	79.990	19.996	103.288	19.051	80.285	0.498
640.000	391.951	79.990	19.996	103.291	19.062	79.449	0.503
640.500	392.181	79.989	19.997	103.288	19.069	78.881	0.512
641.000	392.433	79.989	19.997	103.288	19.080	77.998	0.494
641.500	392.691	79.989	19.996	103.288	19.091	77.172	0.496
642.000	392.934	79.989	19.997	103.289	19.101	76.404	0.505
642.500	393.199	79.990	19.997	103.286	19.106	75.974	0.504
643.000	393.445	79.989	19.997	103.285	19.113	75.412	0.510
643.500	393.719	79.990	19.997	103.285	19.124	74.563	0.516
644.000	393.958	79.991	19.997	103.289	19.133	73.846	0.517
644.500	394.223	79.990	19.997	103.294	19.142	73.150	0.508
645.000	394.506	79.989	19.997	103.299	19.151	72.420	0.526
645.500	394.758	79.990	19.997	103.305	19.161	71.684	0.542
646.001	395.002	79.990	19.997	103.307	19.169	71.030	0.516
646.500	395.258	79.989	19.997	103.309	19.178	70.345	0.498
647.000	395.525	79.989	19.997	103.310	19.184	69.862	0.512
647.501	395.747	79.990	19.997	103.311	19.196	68.921	0.506
648.001	396.049	79.990	19.996	103.311	19.198	68.774	0.506
648.500	396.283	79.990	19.997	103.311	19.206	68.106	0.530
649.000	396.483	79.990	19.997	103.311	19.215	67.388	0.485
649.500	396.763	79.991	19.998	103.311	19.222	66.847	0.457
650.000	397.017	79.990	19.998	103.310	19.233	65.991	0.507
650.500	397.257	79.990	19.997	103.311	19.241	65.367	0.514
651.000	397.496	79.991	19.997	103.311	19.249	64.704	0.486
651.500	397.769	79.989	19.997	103.311	19.258	64.065	0.495
652.000	398.029	79.988	19.997	103.311	19.264	63.601	0.523
652.500	398.286	79.990	19.998	103.311	19.271	63.030	0.525
653.000	398.539	79.990	19.997	103.311	19.277	62.543	0.513
653.500	398.787	79.990	19.997	103.311	19.285	61.919	0.506
654.000	399.067	79.990	19.997	103.311	19.294	61.205	0.515
654.500	399.323	79.989	19.997	103.312	19.299	60.778	0.532
655.000	399.571	79.991	19.997	103.311	19.307	60.199	0.520
655.500	399.842	79.990	19.997	103.311	19.315	59.582	0.512
656.000	400.089	79.990	19.998	103.311	19.324	58.868	0.518
656.500	400.306	79.989	19.996	103.312	19.329	58.454	0.491
657.000	400.587	79.988	19.996	103.312	19.336	57.906	0.481
657.500	400.814	79.989	19.998	103.312	19.344	57.305	0.503
658.000	401.084	79.989	19.998	103.313	19.347	57.076	0.503
658.500	401.304	79.990	19.997	103.319	19.352	56.650	0.494
659.000	401.575	79.990	19.997	103.321	19.361	55.971	0.490
659.500	401.821	79.990	19.997	103.323	19.365	55.619	0.504
660.000	402.062	79.990	19.997	103.326	19.375	54.860	0.503
660.500	402.314	79.990	19.997	103.325	19.377	54.720	0.490
661.000	402.550	79.990	19.997	103.321	19.384	54.106	0.490
661.500	402.805	79.990	19.997	103.321	19.393	53.393	0.489
662.000	403.055	79.990	19.997	103.325	19.394	53.370	0.498
662.500	403.291	79.989	19.997	103.326	19.401	52.808	0.496
663.000	403.549	79.991	19.997	103.330	19.412	51.972	0.490
663.500	403.803	79.990	19.997	103.333	19.409	52.141	0.503
664.000	404.054	79.989	19.997	103.332	19.419	51.379	0.508
664.500	404.317	79.990	19.997	103.328	19.421	51.238	0.510
665.000	404.570	79.989	19.998	103.326	19.429	50.613	0.515
665.500	404.805	79.992	19.997	103.328	19.434	50.170	0.502
666.000	405.049	79.991	19.998	103.331	19.436	50.017	0.483
666.500	405.358	79.990	19.997	103.334	19.445	49.325	0.516
667.000	405.552	79.991	19.997	103.336	19.451	48.909	0.528
667.500	405.804	79.990	19.997	103.340	19.453	48.708	0.474
668.000	406.061	79.991	19.997	103.342	19.457	48.362	0.477
668.500	406.296	79.990	19.996	103.342	19.461	48.047	0.501
669.000	406.554	79.990	19.997	103.345	19.464	47.815	0.492
669.500	406.820	79.990	19.997	103.349	19.469	47.450	0.508
670.000	407.097	79.991	19.998	103.349	19.472	47.230	0.534
670.500	407.353	79.991	19.998	103.348	19.477	46.829	0.538
671.000	407.598	79.990	19.997	103.348	19.481	46.522	0.517
671.500	407.826	79.990	19.997	103.348	19.481	46.548	0.487
672.000	408.063	79.991	19.998	103.347	19.485	46.174	0.469
672.500	408.320	79.990	19.996	103.348	19.488	45.977	0.479
673.001	408.568	79.990	19.997	103.350	19.493	45.570	0.499
673.500	408.793	79.991	19.998	103.350	19.496	45.326	0.489
674.000	409.082	79.991	19.998	103.351	19.502	44.842	0.494
674.500	409.322	79.991	19.998	103.351	19.504	44.667	0.521
675.000	409.569	79.990	19.998	103.352	19.507	44.457	0.508
675.500	409.853	79.991	19.998	103.352	19.512	44.093	0.509
676.000	410.078	79.991	19.998	103.352	19.514	43.916	0.520
676.500	410.308	79.991	19.997	103.351	19.517	43.672	0.482
677.000	410.575	79.989	19.998	103.351	19.523	43.223	0.476
677.500	410.829	79.990	19.998	103.351	19.520	43.472	0.509
678.000	411.114	79.990	19.998	103.352	19.524	43.109	0.530
678.500	411.323	79.990	19.998	103.352	19.530	42.633	0.517
679.000	411.561	79.992	19.998	103.353	19.530	42.679	0.470
679.500	411.832	79.991	19.997	103.352	19.534	42.366	0.478
680.000	412.109	79.991	19.997	103.352	19.536	42.215	0.528
680.500	412.370	79.991	19.997	103.352	19.538	42.033	0.543
681.000	412.634	79.991	19.998	103.354	19.541	41.834	0.532
681.500	412.857	79.990	19.997	103.355	19.542	41.751	0.507
682.000	413.062	79.990	19.997	103.355	19.546	41.422	0.458
682.500	413.330	79.989	19.998	103.355	19.545	41.443	0.451
683.000	413.570	79.989	19.997	103.355	19.551	41.048	0.491
683.500	413.816	79.991	19.997	103.353	19.553	40.866	0.497
684.000	414.035	79.990	19.998	103.352	19.556	40.603	0.475
684.500	414.256	79.990	19.998	103.353	19.556	40.575	0.452
685.000	414.545	79.990	19.998	103.352	19.560	40.289	0.475
685.500	414.763	79.990	19.997	103.353	19.561	40.255	0.509
686.000	415.037	79.990	19.996	103.353	19.564	39.950	0.500
686.500	415.258	79.990	19.996	103.355	19.565	39.897	0.494
687.000	415.510	79.991	19.997	103.356	19.569	39.612	0.484
687.500	415.758	79.990	19.997	103.356	19.569	39.621	0.487
688.000	416.023	79.990	19.997	103.357	19.571	39.471	0.507
688.500	416.238	79.990	19.997	103.358	19.573	39.280	0.497
689.000	416.524	79.991	19.996	103.358	19.574	39.173	0.490
689.500	416.762	79.990	19.997	103.358	19.577	38.969	0.512
690.000	416.999	79.990	19.996	103.359	19.578	38.854	0.499
690.500	417.296	79.990	19.996	103.360	19.581	38.616	0.505
691.000	417.522	79.992	19.997	103.360	19.581	38.689	0.529
691.500	417.786	79.991	19.996	103.358	19.581	38.623	0.507
692.000	418.023	79.991	19.995	103.359	19.583	38.464	0.496
692.500	418.292	79.990	19.997	103.361	19.587	38.154	0.503
693.000	418.540	79.993	19.995	103.360	19.588	38.130	0.511
693.500	418.757	79.992	19.997	103.360	19.591	37.897	0.491
694.000	419.026	79.992	19.995	103.360	19.590	37.961	0.476
694.500	419.282	79.991	19.995	103.358	19.594	37.589	0.506
695.000	419.517	79.991	19.995	103.356	19.594	37.658	0.508
695.500	419.752	79.991	19.997	103.356	19.592	37.758	0.480
696.000	420.044	79.992	19.997	103.355	19.595	37.536	0.499
696.500	420.290	79.992	19.996	103.355	19.594	37.586	0.533
697.000	420.585	79.994	19.997	103.356	19.599	37.234	0.540
697.500	420.803	79.992	19.996	103.359	19.603	36.947	0.527
698.000	421.044	79.992	19.996	103.359	19.600	37.165	0.486
698.500	421.294	79.993	19.996	103.359	19.604	36.827	0.475
699.000	421.552	79.992	19.996	103.358	19.606	36.704	0.499
699.500	421.811	79.992	19.996	103.356	19.606	36.697	0.512
700.000	422.064	79.993	19.995	103.352	19.603	36.934	0.515
700.500	422.290	79.992	19.996	103.350	19.610	36.334	0.496
701.000	422.551	79.993	19.996	103.354	19.610	36.358	0.483
701.500	422.797	79.993	19.996	103.360	19.612	36.196	0.496
702.000	423.063	79.992	19.996	103.364	19.613	36.109	0.509
702.500	423.307	79.993	19.995	103.366	19.612	36.204	0.511
703.000	423.554	79.992	19.997	103.369	19.615	35.963	0.501
703.500	423.822	79.992	19.996	103.366	19.615	35.941	0.503
704.000	424.053	79.993	19.996	103.360	19.619	35.622	0.507
704.500	424.317	79.991	19.998	103.356	19.622	35.424	0.497
705.000	424.568	79.992	19.996	103.353	19.622	35.418	0.505
705.500	424.782	79.991	19.996	103.351	19.623	35.331	0.490
706.000	425.060	79.991	19.996	103.350	19.624	35.240	0.478
706.500	425.345	79.990	19.997	103.352	19.627	35.026	0.528
707.000	425.527	79.990	19.997	103.354	19.631	34.749	0.515
707.500	425.804	79.990	19.995	103.357	19.634	34.496	0.463
708.000	426.039	79.989	19.996	103.357	19.633	34.552	0.485
708.500	426.298	79.990	19.997	103.357	19.631	34.697	0.503
709.000	426.552	79.991	19.998	103.356	19.632	34.596	0.504
709.501	426.817	79.989	19.997	103.355	19.635	34.393	0.516
710.000	427.058	79.990	19.997	103.360	19.635	34.437	0.513
710.500	427.306	79.990	19.996	103.364	19.639	34.082	0.498
711.000	427.561	79.990	19.997	103.363	19.637	34.258	0.496
711.500	427.848	79.991	19.997	103.360	19.640	34.025	0.522
712.000	428.072	79.990	19.997	103.360	19.641	33.919	0.527
712.500	428.367	79.989	19.998	103.353	19.643	33.746	0.515
713.000	428.591	79.990	19.997	103.352	19.646	33.504	0.519
713.500	428.829	79.990	19.998	103.359	19.647	33.445	0.491
714.000	429.074	79.990	19.996	103.361	19.647	33.466	0.472
714.500	429.343	79.991	19.997	103.361	19.650	33.196	0.498
715.000	429.598	79.991	19.997	103.363	19.652	33.099	0.519
715.500	429.882	79.991	19.997	103.360	19.652	33.043	0.532
716.000	430.098	79.990	19.997	103.354	19.654	32.880	0.520
716.500	430.350	79.991	19.995	103.354	19.656	32.709	0.484
717.000	430.609	79.990	19.997	103.353	19.657	32.670	0.489
717.500	430.904	79.991	19.996	103.351	19.663	32.217	0.533
718.000	431.102	79.990	19.995	103.351	19.666	31.941	0.524
718.500	431.380	79.990	19.996	103.351	19.667	31.903	0.484
719.000	431.598	79.990	19.996	103.351	19.668	31.771	0.486
719.500	431.898	79.990	19.995	103.351	19.670	31.642	0.507
720.000	432.152	79.991	19.997	103.352	19.671	31.533	0.536
720.500	432.419	79.991	19.997	103.354	19.675	31.247	0.537
721.000	432.677	79.991	19.997	103.355	19.678	31.011	0.523
721.500	432.939	79.990	19.996	103.354	19.681	30.797	0.522
722.000	433.173	79.991	19.997	103.354	19.682	30.710	0.508
722.500	433.426	79.991	19.996	103.357	19.682	30.668	0.492
723.000	433.674	79.990	19.996	103.356	19.688	30.238	0.494
723.500	433.908	79.990	19.998	103.355	19.688	30.226	0.491
724.000	434.209	79.988	19.997	103.355	19.693	29.831	0.509
724.500	434.443	79.991	19.996	103.355	19.694	29.745	0.535
725.000	434.649	79.991	19.996	103.353	19.691	30.013	0.487
725.500	434.912	79.991	19.996	103.353	19.695	29.715	0.454
726.000	435.216	79.991	19.996	103.353	19.699	29.387	0.519
726.500	435.425	79.990	19.996	103.353	19.701	29.201	0.540
727.000	435.704	79.990	19.997	103.353	19.701	29.207	0.500
727.500	435.959	79.991	19.996	103.352	19.705	28.916	0.511
728.000	436.198	79.991	19.996	103.352	19.708	28.693	0.515
728.500	436.460	79.990	19.996	103.352	19.710	28.496	0.498
729.000	436.707	79.989	19.995	103.355	19.710	28.513	0.505
729.500	436.952	79.990	19.997	103.358	19.715	28.146	0.500
730.000	437.233	79.990	19.997	103.358	19.713	28.237	0.509
730.500	437.480	79.990	19.995	103.359	19.717	27.915	0.527
731.000	437.718	79.991	19.995	103.356	19.721	27.671	0.507
731.500	438.050	79.989	19.996	103.346	19.722	27.543	0.527
732.000	438.264	79.989	19.996	103.339	19.726	27.230	0.558
732.500	438.516	79.991	19.995	103.337	19.729	26.974	0.506
733.000	438.781	79.990	19.997	103.337	19.729	26.970	0.492
733.500	439.049	79.990	19.996	103.339	19.733	26.666	0.525
734.000	439.261	79.990	19.997	103.346	19.734	26.633	0.506
734.500	439.560	79.989	19.997	103.350	19.735	26.537	0.496
735.000	439.787	79.990	19.997	103.353	19.741	26.087	0.519
735.500	440.068	79.990	19.996	103.353	19.739	26.223	0.517
736.000	440.318	79.990	19.997	103.355	19.745	25.752	0.519
736.500	440.590	79.989	19.996	103.355	19.748	25.518	0.526
737.000	440.829	79.990	19.996	103.355	19.747	25.593	0.517
737.500	441.082	79.989	19.997	103.355	19.750	25.355	0.501
738.000	441.355	79.989	19.997	103.355	19.753	25.156	0.509
738.500	441.594	79.990	19.997	103.355	19.754	25.019	0.519
739.000	441.836	79.989	19.997	103.355	19.756	24.863	0.496
739.500	442.101	79.988	19.997	103.355	19.760	24.580	0.494
740.000	442.346	79.989	19.997	103.355	19.760	24.574	0.509
740.500	442.607	79.988	19.997	103.354	19.760	24.593	0.508
741.000	442.845	79.989	19.997	103.348	19.768	23.916	0.503
741.500	443.113	79.990	19.996	103.348	19.771	23.698	0.502
742.000	443.369	79.988	19.997	103.347	19.771	23.712	0.514
742.500	443.608	79.990	19.997	103.348	19.771	23.677	0.509
743.000	443.882	79.989	19.998	103.349	19.775	23.362	0.505
743.500	444.110	79.991	19.998	103.354	19.777	23.224	0.508
744.000	444.356	79.990	19.998	103.354	19.780	23.019	0.488
744.500	444.622	79.989	19.998	103.354	19.780	22.975	0.492
745.000	444.869	79.989	19.997	103.353	19.785	22.636	0.512
745.501	445.125	79.990	19.996	103.350	19.790	22.178	0.508
746.000	445.388	79.989	19.996	103.347	19.787	22.408	0.511
746.500	445.659	79.989	19.996	103.347	19.793	22.008	0.527
747.000	445.882	79.988	19.996	103.346	19.793	22.008	0.514
747.500	446.155	79.990	19.998	103.346	19.796	21.716	0.495
748.000	446.374	79.991	19.996	103.350	19.798	21.598	0.494
748.500	446.647	79.990	19.998	103.351	19.805	21.041	0.492
749.000	446.872	79.992	19.996	103.351	19.806	20.927	0.495
749.500	447.152	79.990	19.997	103.354	19.805	21.027	0.501
750.000	447.384	79.991	19.997	103.353	19.808	20.783	0.508
750.500	447.662	79.992	19.996	103.353	19.812	20.473	0.511
751.000	447.892	79.991	19.998	103.355	19.816	20.188	0.510
751.500	448.154	79.991	19.996	103.355	19.821	19.805	0.501
752.000	448.416	79.991	19.997	103.353	19.819	19.957	0.508
752.500	448.670	79.990	19.997	103.354	19.823	19.624	0.520
753.000	448.893	79.992	19.996	103.355	19.824	19.496	0.496
753.500	449.127	79.993	19.995	103.355	19.830	19.071	0.467
754.000	449.433	79.991	19.996	103.355	19.829	19.164	0.498
754.501	449.666	79.992	19.997	103.348	19.829	19.133	0.540
755.000	449.930	79.992	19.997	103.340	19.830	19.077	0.518
755.500	450.230	79.991	19.997	103.339	19.833	18.806	0.530
756.000	450.453	79.992	19.997	103.339	19.836	18.575	0.543
756.500	450.703	79.991	19.996	103.339	19.837	18.523	0.498
757.000	450.949	79.991	19.997	103.343	19.841	18.178	0.485
757.500	451.222	79.991	19.996	103.351	19.838	18.435	0.508
758.000	451.456	79.991	19.997	103.352	19.845	17.885	0.513
758.500	451.725	79.991	19.996	103.352	19.847	17.745	0.505
759.000	451.976	79.992	19.996	103.354	19.848	17.642	0.512
759.500	452.234	79.991	19.996	103.356	19.851	17.395	0.514
760.000	452.484	79.991	19.996	103.349	19.852	17.330	0.508
760.500	452.738	79.992	19.996	103.344	19.853	17.214	0.507
761.000	452.990	79.992	19.997	103.342	19.858	16.827	0.506
761.500	453.257	79.990	19.997	103.339	19.858	16.834	0.512
762.000	453.517	79.991	19.998	103.339	19.861	16.628	0.523
762.500	453.777	79.991	19.998	103.345	19.866	16.233	0.524
763.000	454.060	79.992	19.997	103.349	19.864	16.395	0.531
763.500	454.295	79.989	19.998	103.350	19.865	16.281	0.530
764.000	454.552	79.990	19.998	103.350	19.871	15.817	0.505
764.500	454.808	79.990	19.998	103.350	19.872	15.779	0.502
765.000	455.059	79.991	19.997	103.350	19.873	15.658	0.510
765.500	455.356	79.991	19.997	103.350	19.875	15.513	0.528
766.000	455.605	79.990	19.997	103.349	19.878	15.273	0.547
766.500	455.859	79.991	19.998	103.343	19.882	14.936	0.524
767.000	456.094	79.991	19.997	103.336	19.886	14.659	0.496
767.500	456.386	79.989	19.998	103.335	19.886	14.691	0.508
768.000	456.622	79.990	19.999	103.334	19.886	14.622	0.527
768.500	456.861	79.992	19.998	103.335	19.889	14.395	0.501
769.000	457.079	79.989	19.997	103.339	19.891	14.255	0.466
769.501	457.357	79.991	19.998	103.345	19.892	14.190	0.477
770.000	457.617	79.991	19.998	103.345	19.897	13.758	0.517
770.500	457.837	79.989	19.998	103.346	19.896	13.870	0.509
771.000	458.116	79.990	19.998	103.345	19.900	13.532	0.489
771.500	458.336	79.990	19.997	103.347	19.905	13.199	0.498
772.000	458.583	79.991	19.998	103.345	19.903	13.352	0.483
772.500	458.882	79.990	19.997	103.337	19.905	13.175	0.507
773.000	459.149	79.990	19.998	103.332	19.910	12.801	0.556
773.500	459.409	79.990	19.999	103.331	19.910	12.762	0.547
774.000	459.624	79.990	19.998	103.331	19.914	12.490	0.502
774.500	459.892	79.991	19.996	103.334	19.913	12.518	0.479
775.000	460.175	79.991	19.998	103.342	19.923	11.770	0.517
775.500	460.384	79.991	19.998	103.347	19.920	12.017	0.522
776.000	460.674	79.994	19.997	103.348	19.924	11.671	0.496
776.500	460.905	79.993	19.997	103.347	19.924	11.687	0.510
777.000	461.204	79.993	19.996	103.344	19.923	11.722	0.526
777.500	461.431	79.992	19.997	103.342	19.928	11.391	0.528
778.000	461.656	79.993	19.997	103.341	19.929	11.260	0.489
778.500	461.919	79.993	19.998	103.342	19.932	11.000	0.470
779.000	462.162	79.993	19.997	103.342	19.936	10.749	0.497
779.500	462.437	79.992	19.997	103.341	19.940	10.384	0.512
780.000	462.685	79.992	19.997	103.343	19.938	10.587	0.521
780.500	462.957	79.993	19.998	103.343	19.943	10.204	0.522
781.000	463.203	79.992	19.997	103.342	19.948	9.813	0.519
781.500	463.485	79.992	19.996	103.342	19.947	9.879	0.523
782.000	463.697	79.992	19.996	103.346	19.949	9.732	0.511
782.500	463.937	79.993	19.997	103.347	19.950	9.603	0.473
783.000	464.193	79.991	19.997	103.348	19.953	9.411	0.474
783.500	464.453	79.993	19.997	103.348	19.954	9.301	0.506
784.000	464.684	79.992	19.996	103.344	19.957	9.076	0.504
784.500	464.946	79.992	19.996	103.344	19.959	8.935	0.492
785.000	465.201	79.991	19.996	103.343	19.959	8.939	0.505
785.500	465.455	79.992	19.997	103.343	19.961	8.768	0.513
786.000	465.700	79.991	19.995	103.341	19.963	8.600	0.504
786.500	465.953	79.990	19.995	103.344	19.965	8.442	0.499
787.000	466.249	79.991	19.997	103.343	19.968	8.198	0.523
787.500	466.470	79.990	19.997	103.338	19.969	8.169	0.533
788.000	466.722	79.989	19.997	103.336	19.971	7.959	0.495
788.500	466.985	79.990	19.996	103.338	19.971	7.952	0.494
789.000	467.264	79.990	19.997	103.338	19.974	7.702	0.529
789.500	467.506	79.989	19.996	103.334	19.976	7.607	0.531
790.000	467.750	79.991	19.997	103.331	19.977	7.477	0.504
790.500	468.015	79.990	19.997	103.330	19.980	7.243	0.497
791.000	468.257	79.990	19.997	103.330	19.981	7.207	0.508
791.500	468.494	79.990	19.996	103.330	19.979	7.330	0.494
792.000	468.768	79.990	19.997	103.331	19.983	6.995	0.495
792.500	469.030	79.989	19.996	103.337	19.987	6.740	0.523
793.000	469.281	79.990	19.997	103.341	19.988	6.612	0.525
793.500	469.520	79.988	19.997	103.343	19.989	6.556	0.502
794.000	469.791	79.990	19.997	103.344	19.992	6.286	0.500
794.500	470.050	79.989	19.997	103.349	19.989	6.532	0.520
795.000	470.310	79.990	19.997	103.346	19.998	5.836	0.524
795.500	470.535	79.990	19.998	103.342	19.996	5.990	0.502
796.000	470.829	79.990	19.996	103.337	19.998	5.848	0.502
796.500	471.061	79.989	19.997	103.336	20.001	5.612	0.523
797.000	471.306	79.989	19.996	103.336	20.003	5.459	0.502
797.500	471.580	79.988	19.997	103.341	20.002	5.549	0.498
798.000	471.827	79.989	19.997	103.345	20.003	5.437	0.520
798.500	472.073	79.989	19.996	103.352	20.006	5.238	0.507
799.000	472.315	79.988	19.997	103.353	20.009	4.970	0.490
799.500	472.583	79.988	19.995	103.350	20.008	5.052	0.499
800.000	472.859	79.990	19.996	103.349	20.012	4.728	0.528
800.500	473.109	79.988	19.996	103.349	20.010	4.870	0.535
801.000	473.355	79.990	19.998	103.346	20.011	4.849	0.511
801.500	473.609	79.989	19.997	103.344	20.010	4.877	0.498
802.000	473.852	79.989	19.997	103.347	20.014	4.561	0.499
802.500	474.153	79.991	19.996	103.346	20.017	4.391	0.521
803.000	474.377	79.989	19.997	103.342	20.020	4.110	0.534
803.500	474.659	79.990	19.997	103.341	20.018	4.292	0.515
804.000	474.906	79.989	19.996	103.339	20.020	4.151	0.517
804.500	475.176	79.990	19.996	103.338	20.020	4.127	0.523
805.000	475.412	79.990	19.997	103.339	20.020	4.114	0.512
805.500	475.668	79.990	19.997	103.342	20.023	3.900	0.499
806.000	475.897	79.990	19.997	103.344	20.020	4.086	0.489
806.500	476.145	79.990	19.996	103.347	20.021	4.077	0.481
807.000	476.425	79.989	19.996	103.348	20.022	3.982	0.503
807.500	476.668	79.990	19.997	103.347	20.026	3.626	0.526
808.000	476.932	79.990	19.997	103.349	20.027	3.602	0.515
808.500	477.188	79.990	19.997	103.351	20.026	3.641	0.513
809.000	477.457	79.990	19.997	103.350	20.027	3.576	0.523
809.500	477.676	79.990	19.996	103.344	20.025	3.730	0.506
810.000	477.958	79.991	19.996	103.341	20.024	3.792	0.494
810.500	478.190	79.989	19.997	103.337	20.025	3.695	0.508
811.000	478.480	79.991	19.998	103.335	20.028	3.520	0.518
811.500	478.711	79.990	19.995	103.331	20.028	3.527	0.521
812.000	478.986	79.989	19.996	103.335	20.029	3.386	0.513
812.500	479.220	79.991	19.997	103.339	20.029	3.449	0.508
813.000	479.501	79.989	19.996	103.340	20.028	3.496	0.513
813.500	479.717	79.990	19.997	103.341	20.031	3.248	0.506
814.000	480.001	79.989	19.996	103.345	20.031	3.291	0.498
814.500	480.253	79.990	19.996	103.345	20.032	3.179	0.518
815.000	480.468	79.988	19.997	103.344	20.032	3.140	0.502
815.500	480.741	79.988	19.996	103.342	20.033	3.133	0.478
816.000	480.993	79.989	19.996	103.338	20.035	2.917	0.507
816.500	481.237	79.989	19.996	103.334	20.034	3.017	0.511
817.000	481.519	79.989	19.996	103.335	20.035	2.935	0.511
817.500	481.766	79.989	19.996	103.337	20.036	2.861	0.527
818.000	481.998	79.989	19.995	103.334	20.036	2.876	0.504
818.501	482.277	79.988	19.996	103.339	20.039	2.621	0.495
819.000	482.528	79.990	19.996	103.344	20.041	2.457	0.521
819.500	482.788	79.989	19.997	103.345	20.037	2.794	0.521
820.000	483.024	79.989	19.997	103.343	20.039	2.612	0.504
820.500	483.273	79.989	19.996	103.345	20.040	2.541	0.490
821.000	483.529	79.987	19.996	103.343	20.040	2.534	0.495
821.500	483.756	79.990	19.997	103.342	20.039	2.590	0.494
822.000	484.016	79.989	19.996	103.342	20.042	2.392	0.485
822.500	484.252	79.988	19.997	103.345	20.041	2.485	0.492
823.000	484.520	79.989	19.997	103.349	20.041	2.480	0.500
823.500	484.780	79.989	19.997	103.351	20.044	2.254	0.516
824.000	485.037	79.989	19.996	103.348	20.044	2.256	0.523
824.500	485.264	79.990	19.996	103.346	20.044	2.271	0.501
825.000	485.513	79.989	19.997	103.342	20.043	2.273	0.480
825.500	485.812	79.989	19.998	103.341	20.045	2.182	0.512
826.000	486.029	79.990	19.996	103.344	20.043	2.316	0.532
826.500	486.300	79.989	19.998	103.345	20.044	2.195	0.502
827.000	486.543	79.990	19.998	103.347	20.049	1.875	0.501
827.500	486.813	79.990	19.997	103.350	20.044	2.230	0.514
828.000	487.042	79.991	19.998	103.350	20.049	1.802	0.506
828.500	487.290	79.991	19.997	103.342	20.047	2.031	0.488
829.000	487.557	79.990	19.997	103.337	20.045	2.118	0.497
829.500	487.773	79.990	19.997	103.335	20.047	2.029	0.499
830.000	488.070	79.992	19.997	103.330	20.047	1.988	0.498
830.500	488.325	79.991	19.998	103.328	20.045	2.137	0.533
831.000	488.579	79.991	19.997	103.329	20.047	1.979	0.531
831.500	488.851	79.990	19.998	103.328	20.046	2.063	0.517
832.000	489.110	79.991	19.997	103.323	20.051	1.655	0.528
832.500	489.358	79.992	19.997	103.320	20.051	1.717	0.519
833.000	489.635	79.991	19.998	103.322	20.048	1.916	0.516
833.500	489.890	79.991	19.998	103.324	20.047	1.960	0.529
834.000	490.151	79.992	19.998	103.331	20.048	1.899	0.524
834.500	490.393	79.992	19.997	103.337	20.048	1.945	0.510
835.000	490.617	79.991	19.997	103.343	20.050	1.750	0.484
835.500	490.877	79.992	19.997	103.339	20.049	1.813	0.475
836.001	491.172	79.990	19.996	103.337	20.051	1.677	0.519
836.500	491.410	79.991	19.997	103.330	20.050	1.759	0.544
837.000	491.647	79.991	19.997	103.324	20.048	1.880	0.504
837.500	491.913	79.993	19.998	103.319	20.053	1.513	0.489
838.000	492.169	79.993	19.997	103.319	20.051	1.677	0.512
838.500	492.438	79.992	19.998	103.325	20.050	1.728	0.523
839.000	492.681	79.993	19.997	103.328	20.053	1.551	0.519
839.500	492.942	79.991	19.996	103.333	20.052	1.629	0.508
840.000	493.174	79.991	19.996	103.339	20.050	1.756	0.499
840.500	493.442	79.991	19.998	103.344	20.049	1.804	0.496
841.000	493.692	79.991	19.997	103.341	20.052	1.579	0.509
841.500	493.996	79.991	19.998	103.339	20.055	1.391	0.536
842.000	494.234	79.991	19.997	103.334	20.053	1.553	0.548
842.500	494.493	79.991	19.998	103.326	20.052	1.573	0.519
843.000	494.726	79.991	19.997	103.322	20.055	1.404	0.494
843.500	495.016	79.990	19.996	103.320	20.056	1.260	0.508
844.001	495.270	79.991	19.996	103.325	20.054	1.424	0.534
844.500	495.511	79.991	19.996	103.331	20.055	1.381	0.519
845.000	495.767	79.992	19.996	103.339	20.053	1.528	0.496
845.500	496.037	79.991	19.996	103.342	20.058	1.152	0.512
846.000	496.283	79.990	19.997	103.339	20.057	1.195	0.521
846.500	496.549	79.990	19.997	103.336	20.057	1.199	0.513
847.000	496.773	79.991	19.996	103.337	20.058	1.139	0.501
847.500	497.055	79.989	19.997	103.333	20.056	1.294	0.498
848.000	497.289	79.990	19.996	103.330	20.057	1.232	0.511
848.500	497.538	79.990	19.996	103.337	20.055	1.331	0.499
849.000	497.802	79.991	19.997	103.338	20.056	1.273	0.498
849.500	498.054	79.990	19.996	103.331	20.058	1.128	0.515
850.000	498.317	79.990	19.997	103.327	20.060	1.011	0.515
850.500	498.578	79.990	19.998	103.326	20.059	1.022	0.519
851.000	498.824	79.990	19.998	103.319	20.059	1.057	0.516
851.500	499.082	79.990	19.998	103.314	20.058	1.124	0.506
852.000	499.332	79.989	19.997	103.315	20.058	1.169	0.506
852.500	499.571	79.989	19.996	103.315	20.058	1.165	0.499
853.000	499.815	79.990	19.997	103.314	20.055	1.350	0.486
853.500	500.038	79.991	19.998	103.315	20.056	1.322	0.475
854.000	500.324	79.991	19.998	103.319	20.058	1.158	0.488
854.500	500.574	79.991	19.998	103.321	20.057	1.238	0.523
855.000	500.827	79.992	19.997	103.325	20.060	0.987	0.519
855.500	501.095	79.992	19.996	103.329	20.059	1.085	0.512
856.000	501.339	79.992	19.996	103.328	20.058	1.167	0.517
856.500	501.617	79.992	19.997	103.331	20.058	1.167	0.517
857.000	501.811	79.991	19.996	103.334	20.058	1.117	0.497
857.500	502.090	79.992	19.997	103.338	20.059	1.076	0.473
858.000	502.341	79.991	19.998	103.340	20.059	1.076	0.502
858.500	502.619	79.992	19.998	103.341	20.060	0.972	0.529
859.000	502.870	79.992	19.998	103.334	20.057	1.180	0.529
859.500	503.110	79.992	19.996	103.329	20.057	1.236	0.509
860.000	503.356	79.992	19.998	103.325	20.057	1.212	0.488
860.500	503.622	79.990	19.998	103.321	20.060	0.972	0.499
861.000	503.879	79.993	19.997	103.324	20.060	0.972	0.517
861.500	504.144	79.991	19.998	103.329	20.060	0.951	0.523
862.000	504.374	79.991	19.998	103.335	20.059	1.054	0.509
862.500	504.566	79.992	19.998	103.338	20.057	1.180	0.458
863.000	504.833	79.993	19.998	103.335	20.058	1.104	0.440
863.500	505.119	79.991	19.997	103.329	20.061	0.879	0.506
864.000	505.376	79.992	19.997	103.326	20.060	0.966	0.548
864.500	505.624	79.992	19.997	103.321	20.061	0.912	0.524
865.000	505.909	79.993	19.997	103.321	20.060	1.005	0.519
865.500	506.148	79.992	19.998	103.330	20.060	0.961	0.528
866.000	506.409	79.990	19.997	103.334	20.060	0.998	0.512
866.500	506.653	79.991	19.998	103.332	20.059	1.046	0.503
867.000	506.900	79.991	19.997	103.330	20.059	1.054	0.498
867.500	507.172	79.990	19.997	103.325	20.059	1.078	0.505
868.000	507.392	79.990	19.998	103.317	20.059	1.013	0.505
868.500	507.667	79.990	19.997	103.319	20.059	1.028	0.493
869.000	507.904	79.989	19.997	103.327	20.059	1.087	0.503
869.500	508.166	79.991	19.997	103.334	20.061	0.916	0.506
870.000	508.410	79.990	19.997	103.342	20.061	0.927	0.503
870.500	508.665	79.991	19.996	103.346	20.059	1.059	0.502
871.000	508.944	79.990	19.996	103.342	20.062	0.823	0.516
871.500	509.170	79.990	19.997	103.337	20.060	0.994	0.519
872.000	509.440	79.989	19.996	103.334	20.061	0.888	0.501
872.500	509.642	79.991	19.996	103.329	20.060	0.949	0.484
873.000	509.959	79.989	19.996	103.327	20.061	0.875	0.496
873.500	510.192	79.990	19.997	103.332	20.059	1.065	0.535
874.000	510.441	79.990	19.996	103.332	20.058	1.109	0.516
874.500	510.714	79.989	19.995	103.331	20.059	1.050	0.502
875.000	511.002	79.991	19.998	103.335	20.053	1.487	0.541
875.500	511.221	79.990	19.998	103.336	20.057	1.199	0.534
876.000	511.445	79.991	19.997	103.329	20.057	1.175	0.475
876.500	511.711	79.989	19.996	103.328	20.057	1.178	0.466
877.000	511.984	79.989	19.997	103.328	20.058	1.113	0.514
877.500	512.239	79.990	19.997	103.326	20.057	1.238	0.533
878.000	512.482	79.989	19.996	103.328	20.057	1.244	0.512
878.500	512.751	79.989	19.996	103.336	20.056	1.309	0.505
879.000	513.001	79.990	19.996	103.339	20.056	1.266	0.516
879.500	513.258	79.991	19.996	103.336	20.056	1.290	0.514
880.000	513.476	79.990	19.997	103.334	20.055	1.353	0.491
880.500	513.755	79.989	19.997	103.331	20.055	1.357	0.486
881.000	513.999	79.990	19.997	103.324	20.056	1.285	0.510
881.500	514.304	79.989	19.997	103.324	20.055	1.385	0.536
882.000	514.503	79.991	19.996	103.328	20.056	1.290	0.526
882.500	514.785	79.989	19.996	103.332	20.057	1.225	0.492
883.000	515.093	79.989	19.997	103.335	20.056	1.324	0.535
883.501	515.334	79.990	19.996	103.339	20.053	1.521	0.570
884.001	515.613	79.990	19.997	103.345	20.055	1.374	0.535
884.500	515.826	79.990	19.996	103.347	20.057	1.238	0.506
885.000	516.128	79.989	19.996	103.350	20.055	1.340	0.504
885.500	516.366	79.990	19.996	103.353	20.054	1.463	0.527
886.000	516.605	79.988	19.996	103.353	20.057	1.247	0.508
886.500	516.834	79.989	19.995	103.349	20.054	1.482	0.473
887.000	517.119	79.989	19.996	103.341	20.053	1.523	0.491
887.500	517.393	79.991	19.996	103.333	20.054	1.469	0.536
888.000	517.621	79.991	19.996	103.326	20.053	1.489	0.530
888.500	517.888	79.991	19.996	103.323	20.055	1.381	0.498
889.000	518.154	79.991	19.996	103.326	20.052	1.577	0.514
889.500	518.389	79.990	19.997	103.331	20.054	1.456	0.517
890.000	518.654	79.990	19.997	103.339	20.051	1.705	0.501
890.500	518.909	79.990	19.996	103.342	20.054	1.458	0.510
891.000	519.169	79.990	19.997	103.339	20.051	1.666	0.517
891.500	519.401	79.991	19.997	103.331	20.052	1.631	0.503
892.000	519.647	79.991	19.996	103.324	20.053	1.558	0.485
892.500	519.917	79.991	19.996	103.316	20.055	1.361	0.498
893.000	520.173	79.991	19.996	103.316	20.052	1.627	0.521
893.500	520.424	79.991	19.996	103.323	20.054	1.430	0.516
894.000	520.716	79.989	19.997	103.330	20.052	1.610	0.525
894.500	520.967	79.990	19.997	103.338	20.053	1.502	0.543
895.000	521.217	79.988	19.997	103.343	20.049	1.813	0.522
895.500	521.444	79.990	19.997	103.343	20.050	1.774	0.489
896.000	521.737	79.990	19.995	103.336	20.051	1.683	0.498
896.500	522.003	79.990	19.997	103.330	20.051	1.703	0.539
897.000	522.210	79.990	19.997	103.328	20.049	1.856	0.516
897.500	522.465	79.990	19.997	103.328	20.048	1.886	0.467
898.000	522.713	79.991	19.997	103.328	20.046	2.057	0.483
898.500	523.008	79.991	19.997	103.330	20.048	1.880	0.523
899.000	523.278	79.988	19.997	103.330	20.053	1.487	0.554
899.500	523.543	79.990	19.997	103.324	20.051	1.690	0.550
900.000	523.779	79.991	19.997	103.320	20.049	1.871	0.518
900.500	524.069	79.990	19.996	103.322	20.048	1.923	0.514
901.000	524.306	79.989	19.996	103.326	20.047	2.016	0.527
901.500	524.547	79.991	19.997	103.328	20.048	1.882	0.502
902.000	524.810	79.990	19.997	103.328	20.049	1.856	0.491
902.500	525.087	79.991	19.996	103.332	20.048	1.904	0.522
903.000	525.322	79.990	19.996	103.331	20.049	1.806	0.526
903.500	525.568	79.990	19.997	103.329	20.049	1.826	0.496
904.000	525.882	79.990	19.997	103.333	20.049	1.839	0.521
904.500	526.140	79.990	19.997	103.340	20.046	2.111	0.566
905.000	526.391	79.989	19.997	103.339	20.047	2.014	0.540
905.500	526.611	79.990	19.996	103.341	20.047	2.018	0.490
906.000	526.881	79.991	19.996	103.339	20.046	2.074	0.480
906.500	527.143	79.990	19.997	103.335	20.045	2.160	0.511
907.000	527.406	79.990	19.996	103.329	20.045	2.180	0.529
907.500	527.682	79.989	19.996	103.330	20.048	1.947	0.531
908.000	527.917	79.990	19.995	103.325	20.045	2.189	0.525
908.500	528.204	79.991	19.994	103.325	20.047	1.979	0.517
909.000	528.469	79.991	19.996	103.326	20.045	2.165	0.537
909.500	528.694	79.991	19.996	103.330	20.045	2.174	0.521
910.000	528.970	79.990	19.997	103.333	20.044	2.193	0.496
910.500	529.222	79.990	19.996	103.336	20.042	2.368	0.514
911.000	529.485	79.992	19.996	103.340	20.046	2.078	0.521
911.500	529.756	79.991	19.995	103.341	20.046	2.072	0.524
912.000	529.982	79.991	19.997	103.342	20.043	2.306	0.516
912.500	530.268	79.990	19.996	103.338	20.044	2.258	0.505
913.000	530.526	79.991	19.996	103.339	20.044	2.249	0.528
913.500	530.807	79.991	19.997	103.340	20.045	2.176	0.541
914.001	531.070	79.991	19.996	103.343	20.045	2.148	0.542
914.500	531.331	79.992	19.997	103.343	20.044	2.245	0.534
915.000	531.588	79.992	19.996	103.343	20.042	2.368	0.520
915.500	531.835	79.991	19.996	103.336	20.042	2.387	0.511
916.000	532.072	79.991	19.996	103.329	20.044	2.238	0.494
916.500	532.328	79.991	19.997	103.322	20.044	2.251	0.488
917.000	532.589	79.991	19.996	103.318	20.040	2.539	0.505
917.500	532.847	79.991	19.997	103.322	20.040	2.508	0.518
918.000	533.117	79.990	19.996	103.330	20.043	2.348	0.524
918.500	533.355	79.991	19.997	103.337	20.044	2.195	0.518
919.000	533.632	79.991	19.997	103.343	20.046	2.111	0.512
919.500	533.889	79.991	19.996	103.345	20.042	2.407	0.525
920.001	534.151	79.989	19.997	103.340	20.041	2.470	0.526
920.500	534.398	79.991	19.997	103.336	20.041	2.448	0.514
921.000	534.661	79.991	19.997	103.330	20.041	2.498	0.510
921.500	534.912	79.990	19.997	103.327	20.042	2.398	0.512
922.000	535.226	79.989	19.997	103.329	20.039	2.640	0.539
922.500	535.461	79.990	19.997	103.335	20.039	2.612	0.557
923.000	535.695	79.989	19.997	103.339	20.039	2.653	0.509
923.500	535.972	79.989	19.997	103.344	20.040	2.539	0.490
924.000	536.250	79.989	19.996	103.345	20.038	2.703	0.533
924.500	536.492	79.991	19.997	103.343	20.038	2.668	0.538
925.000	536.753	79.990	19.997	103.338	20.037	2.798	0.512
925.500	537.005	79.990	19.996	103.331	20.040	2.573	0.508
926.000	537.245	79.991	19.997	103.326	20.037	2.753	0.502
926.500	537.520	79.989	19.996	103.330	20.035	2.962	0.503
927.000	537.796	79.989	19.997	103.326	20.037	2.751	0.533
927.500	538.062	79.989	19.997	103.325	20.038	2.690	0.547
928.000	538.297	79.991	19.997	103.328	20.035	2.964	0.522
928.500	538.581	79.990	19.997	103.329	20.037	2.783	0.510
929.000	538.798	79.989	19.996	103.325	20.034	3.031	0.510
929.500	539.090	79.989	19.997	103.328	20.035	2.958	0.505
930.000	539.343	79.990	19.997	103.332	20.038	2.716	0.527
930.501	539.581	79.989	19.997	103.337	20.037	2.793	0.518
931.000	539.837	79.989	19.996	103.341	20.031	3.236	0.492
931.500	540.082	79.989	19.997	103.339	20.035	2.975	0.497
932.000	540.379	79.989	19.996	103.340	20.036	2.863	0.521
932.500	540.626	79.991	19.998	103.338	20.034	3.010	0.543
933.000	540.841	79.990	19.997	103.337	20.033	3.096	0.503
933.500	541.142	79.991	19.996	103.333	20.034	2.988	0.489
934.000	541.377	79.991	19.996	103.335	20.034	3.030	0.526
934.500	541.633	79.992	19.997	103.329	20.035	2.928	0.514
935.000	541.889	79.991	19.996	103.326	20.032	3.146	0.502
935.500	542.143	79.992	19.996	103.322	20.032	3.185	0.511
936.000	542.395	79.990	19.997	103.325	20.035	2.934	0.508
936.500	542.653	79.990	19.996	103.327	20.030	3.356	0.508
937.000	542.877	79.992	19.997	103.334	20.031	3.261	0.496
937.500	543.134	79.993	19.996	103.339	20.030	3.308	0.481
938.000	543.353	79.991	19.996	103.338	20.028	3.485	0.479
938.500	543.623	79.992	19.996	103.331	20.031	3.256	0.483
939.000	543.851	79.992	19.996	103.331	20.025	3.732	0.494
939.500	544.127	79.992	19.996	103.324	20.029	3.447	0.501
940.000	544.392	79.992	19.996	103.320	20.025	3.725	0.522
940.500	544.643	79.991	19.996	103.319	20.026	3.622	0.528
941.000	544.894	79.994	19.996	103.322	20.025	3.732	0.509
941.500	545.170	79.992	19.996	103.321	20.027	3.579	0.514
942.000	545.409	79.992	19.996	103.324	20.028	3.466	0.521
942.500	545.606	79.994	19.997	103.326	20.027	3.570	0.476
943.000	545.868	79.992	19.997	103.334	20.025	3.708	0.448
943.500	546.137	79.991	19.996	103.337	20.022	3.954	0.495
944.000	546.371	79.992	19.996	103.338	20.022	3.948	0.517
944.500	546.610	79.991	19.997	103.342	20.024	3.790	0.488
945.000	546.886	79.990	19.997	103.346	20.021	4.026	0.493
945.500	547.112	79.990	19.996	103.343	20.022	3.944	0.508
946.000	547.383	79.990	19.996	103.342	20.022	3.946	0.500
946.500	547.657	79.991	19.996	103.343	20.022	3.963	0.521
947.000	547.889	79.991	19.996	103.344	20.017	4.321	0.525
947.500	548.133	79.990	19.997	103.342	20.019	4.189	0.491
948.000	548.378	79.991	19.997	103.337	20.021	4.006	0.483
948.500	548.628	79.989	19.997	103.337	20.019	4.218	0.492
949.000	548.898	79.988	19.996	103.338	20.019	4.162	0.507
949.500	549.151	79.989	19.997	103.335	20.019	4.181	0.522
950.000	549.390	79.988	19.997	103.337	20.019	4.211	0.508
950.500	549.606	79.988	19.997	103.345	20.018	4.237	0.474
951.000	549.911	79.990	19.997	103.347	20.018	4.270	0.488
951.500	550.132	79.989	19.997	103.348	20.016	4.425	0.523
952.000	550.391	79.989	19.997	103.350	20.014	4.585	0.503
952.500	550.605	79.989	19.997	103.349	20.017	4.352	0.477
953.000	550.847	79.989	19.997	103.347	20.014	4.553	0.465
953.500	551.081	79.989	19.998	103.341	20.015	4.534	0.466
954.000	551.338	79.990	19.998	103.334	20.013	4.698	0.483
954.500	551.581	79.990	19.997	103.333	20.015	4.551	0.495
955.000	551.845	79.990	19.997	103.334	20.015	4.497	0.504
955.500	552.065	79.988	19.997	103.334	20.012	4.784	0.495
956.000	552.359	79.990	19.998	103.341	20.012	4.758	0.499
956.500	552.604	79.989	19.998	103.346	20.011	4.804	0.526
957.000	552.852	79.991	19.997	103.345	20.011	4.832	0.516
957.500	553.058	79.989	19.997	103.340	20.009	4.951	0.474
958.000	553.332	79.991	19.997	103.336	20.010	4.879	0.467
958.500	553.574	79.990	19.997	103.332	20.009	4.985	0.498
959.000	553.798	79.989	19.998	103.328	20.008	5.031	0.491
959.500	554.055	79.990	19.997	103.331	20.008	5.093	0.473
960.000	554.313	79.988	19.997	103.336	20.008	5.048	0.498
960.500	554.587	79.991	19.999	103.340	20.007	5.134	0.524
961.000	554.806	79.989	19.998	103.341	20.006	5.186	0.513
961.500	555.055	79.992	19.997	103.345	20.005	5.335	0.480
962.000	555.312	79.990	19.997	103.345	20.007	5.130	0.487
962.500	555.582	79.991	19.997	103.345	20.008	5.024	0.517
963.000	555.822	79.991	19.997	103.344	20.008	5.063	0.518
963.500	556.062	79.991	19.997	103.349	20.004	5.340	0.495
964.000	556.309	79.991	19.997	103.348	20.007	5.135	0.484
964.500	556.553	79.989	19.997	103.347	20.002	5.524	0.489
965.000	556.804	79.991	19.997	103.347	20.001	5.595	0.493
965.500	557.064	79.990	19.996	103.348	20.002	5.515	0.502
966.000	557.296	79.989	19.996	103.348	20.002	5.569	0.501
966.500	557.534	79.991	19.996	103.349	20.000	5.662	0.481
967.000	557.807	79.990	19.996	103.349	20.002	5.562	0.490
967.500	558.059	79.991	19.996	103.347	19.999	5.798	0.518
968.000	558.290	79.990	19.997	103.347	20.000	5.722	0.504
968.500	558.527	79.990	19.997	103.347	20.000	5.731	0.476
969.000	558.793	79.990	19.996	103.347	19.994	6.131	0.486
969.500	559.022	79.990	19.996	103.349	19.996	5.969	0.499
970.000	559.276	79.990	19.996	103.350	19.992	6.325	0.489
970.500	559.509	79.990	19.996	103.346	19.995	6.114	0.485
971.000	559.743	79.990	19.997	103.342	19.993	6.280	0.477
971.501	560.010	79.992	19.996	103.342	19.991	6.362	0.483
972.001	560.277	79.992	19.996	103.341	19.992	6.295	0.517
972.501	560.517	79.990	19.995	103.342	19.990	6.498	0.521
973.000	560.792	79.991	19.996	103.346	19.996	6.027	0.511
973.500	561.026	79.990	19.997	103.349	19.995	6.122	0.512
974.000	561.258	79.991	19.996	103.350	19.993	6.226	0.487
974.500	561.557	79.990	19.997	103.351	19.991	6.379	0.498
975.000	561.810	79.990	19.996	103.355	19.989	6.552	0.541
975.500	562.079	79.991	19.996	103.356	19.989	6.572	0.537
976.000	562.309	79.990	19.997	103.356	19.989	6.569	0.511
976.500	562.589	79.991	19.996	103.355	19.987	6.697	0.504
977.000	562.820	79.990	19.997	103.355	19.986	6.816	0.511
977.500	563.062	79.991	19.997	103.350	19.989	6.541	0.492
978.000	563.297	79.989	19.998	103.349	19.988	6.658	0.475
978.500	563.571	79.990	19.997	103.349	19.985	6.853	0.493
979.000	563.788	79.990	19.996	103.350	19.986	6.812	0.500
979.500	564.049	79.991	19.997	103.350	19.990	6.468	0.484
980.000	564.297	79.989	19.997	103.350	19.987	6.740	0.493
980.500	564.527	79.989	19.996	103.351	19.989	6.559	0.494
981.000	564.801	79.991	19.997	103.352	19.985	6.838	0.491
981.500	565.064	79.990	19.997	103.352	19.983	7.032	0.520
982.000	565.318	79.990	19.997	103.352	19.983	7.041	0.527
982.500	565.559	79.989	19.997	103.352	19.984	6.967	0.506
983.000	565.821	79.990	19.997	103.351	19.983	7.041	0.499
983.500	566.029	79.990	19.998	103.350	19.982	7.142	0.487
984.000	566.336	79.990	19.997	103.350	19.980	7.257	0.493
984.500	566.541	79.991	19.997	103.350	19.982	7.084	0.514
985.000	566.858	79.990	19.997	103.351	19.980	7.304	0.517
985.500	567.066	79.990	19.996	103.351	19.981	7.218	0.523
986.000	567.335	79.989	19.997	103.352	19.979	7.367	0.501
986.500	567.569	79.989	19.997	103.352	19.977	7.529	0.490
987.000	567.838	79.989	19.997	103.351	19.978	7.443	0.503
987.500	568.080	79.990	19.997	103.351	19.980	7.244	0.507
988.000	568.361	79.991	19.997	103.351	19.973	7.793	0.517
988.500	568.583	79.990	19.996	103.351	19.979	7.380	0.513
989.000	568.865	79.991	19.996	103.352	19.976	7.549	0.504
989.500	569.117	79.990	19.996	103.352	19.974	7.717	0.519
990.000	569.390	79.990	19.996	103.353	19.978	7.456	0.530
990.500	569.638	79.989	19.996	103.353	19.979	7.341	0.524
991.000	569.864	79.991	19.997	103.353	19.976	7.583	0.498
991.500	570.122	79.990	19.997	103.353	19.975	7.695	0.479
992.000	570.375	79.991	19.998	103.353	19.973	7.784	0.497
992.500	570.663	79.992	19.995	103.353	19.970	8.089	0.526
993.000	570.882	79.991	19.996	103.353	19.972	7.870	0.524
993.500	571.191	79.991	19.996	103.353	19.978	7.384	0.517
994.000	571.411	79.992	19.996	103.353	19.977	7.501	0.528
994.500	571.687	79.991	19.996	103.353	19.976	7.581	0.512
995.000	571.952	79.991	19.996	103.353	19.975	7.637	0.519
995.500	572.216	79.992	19.996	103.353	19.977	7.540	0.535
996.000	572.449	79.991	19.996	103.352	19.978	7.454	0.513
996.500	572.725	79.993	19.996	103.352	19.973	7.799	0.503
997.000	572.985	79.992	19.996	103.353	19.969	8.130	0.523
997.500	573.242	79.992	19.996	103.353	19.973	7.808	0.527
998.000	573.514	79.992	19.995	103.352	19.974	7.715	0.523
998.500	573.735	79.991	19.996	103.353	19.973	7.804	0.511
999.000	574.042	79.992	19.996	103.353	19.976	7.618	0.511
999.500	574.303	79.992	19.996	103.353	19.973	7.830	0.548
1000.000	574.567	79.991	19.996	103.352	19.975	7.678	0.547
1000.501	574.840	79.992	19.996	103.352	19.977	7.490	0.531
1001.000	575.089	79.992	19.994	103.353	19.974	7.728	0.529
1001.500	575.379	79.991	19.995	103.353	19.976	7.566	0.530
1002.000	575.650	79.991	19.996	103.351	19.974	7.724	0.550
1002.500	575.909	79.993	19.996	103.351	19.972	7.864	0.546
1003.000	576.152	79.992	19.996	103.352	19.975	7.696	0.515
1003.500	576.375	79.991	19.996	103.351	19.979	7.356	0.484
1004.000	576.665	79.992	19.996	103.351	19.980	7.272	0.490
1004.500	576.927	79.991	19.995	103.352	19.973	7.838	0.533
1005.000	577.188	79.991	19.996	103.353	19.977	7.501	0.537
1005.500	577.470	79.991	19.996	103.353	19.978	7.440	0.533
1006.000	577.736	79.990	19.996	103.353	19.977	7.518	0.546
1006.500	577.967	79.990	19.996	103.353	19.976	7.600	0.523
1007.000	578.261	79.990	19.996	103.354	19.977	7.514	0.511
1007.500	578.494	79.991	19.996	103.355	19.978	7.423	0.526
1008.000	578.827	79.991	19.996	103.355	19.977	7.486	0.547
1008.500	579.042	79.991	19.995	103.355	19.980	7.285	0.557
1009.000	579.304	79.990	19.997	103.354	19.981	7.194	0.512
1009.500	579.544	79.991	19.996	103.354	19.979	7.356	0.490
1010.000	579.792	79.989	19.996	103.354	19.982	7.146	0.495
1010.500	580.095	79.989	19.997	103.353	19.977	7.488	0.519
1011.000	580.331	79.989	19.997	103.354	19.981	7.189	0.546
1011.500	580.631	79.990	19.996	103.356	19.979	7.354	0.538
1012.000	580.895	79.990	19.996	103.355	19.983	7.064	0.550
1012.500	581.125	79.989	19.996	103.355	19.984	6.947	0.529
1013.000	581.372	79.991	19.997	103.356	19.982	7.118	0.485
1013.500	581.638	79.990	19.997	103.355	19.983	6.997	0.495
1014.000	581.920	79.990	19.997	103.357	19.987	6.736	0.531
1014.500	582.192	79.991	19.997	103.356	19.987	6.708	0.551
1015.000	582.472	79.990	19.997	103.356	19.988	6.613	0.553
1015.500	582.712	79.991	19.997	103.355	19.989	6.582	0.536
1016.000	582.994	79.991	19.997	103.353	19.988	6.647	0.521
1016.501	583.231	79.991	19.997	103.351	19.989	6.545	0.520
1017.000	583.552	79.991	19.998	103.352	19.990	6.468	0.538
1017.500	583.802	79.991	19.997	103.351	19.987	6.714	0.564
1018.000	584.044	79.991	19.997	103.352	19.990	6.504	0.531
1018.500	584.284	79.991	19.997	103.354	19.991	6.415	0.487
1019.000	584.604	79.992	19.997	103.352	19.993	6.240	0.521
1019.500	584.854	79.992	19.997	103.352	19.991	6.395	0.565
1020.000	585.121	79.992	19.997	103.350	19.994	6.128	0.544
1020.500	585.374	79.993	19.996	103.349	19.994	6.191	0.519
1021.000	585.639	79.993	19.997	103.348	19.995	6.100	0.519
1021.500	585.889	79.993	19.997	103.348	19.992	6.353	0.517
1022.000	586.151	79.993	19.996	103.348	19.996	5.988	0.513
1022.500	586.407	79.993	19.997	103.349	19.998	5.832	0.514
1023.000	586.682	79.994	19.997	103.346	20.003	5.478	0.525
1023.500	586.951	79.993	19.996	103.346	19.998	5.811	0.538
1024.000	587.247	79.992	19.996	103.346	20.002	5.560	0.555
1024.500	587.485	79.993	19.997	103.346	20.003	5.465	0.549
1025.000	587.769	79.993	19.996	103.347	20.000	5.668	0.528
1025.500	587.992	79.992	19.997	103.348	20.005	5.324	0.515
1026.000	588.258	79.992	19.995	103.348	20.004	5.357	0.498
1026.500	588.522	79.991	19.996	103.348	20.005	5.318	0.509
1027.000	588.799	79.993	19.996	103.347	20.007	5.168	0.535
1027.500	589.102	79.991	19.997	103.347	20.009	4.997	0.561
1028.000	589.358	79.989	19.996	103.347	20.010	4.941	0.569
1028.500	589.628	79.991	19.996	103.340	20.013	4.701	0.542
1029.000	589.876	79.990	19.997	103.335	20.012	4.775	0.522
1029.500	590.128	79.990	19.997	103.334	20.013	4.641	0.509
1030.000	590.432	79.990	19.997	103.332	20.014	4.572	0.528
1030.500	590.673	79.989	19.997	103.328	20.015	4.505	0.550
1031.000	590.927	79.990	19.996	103.333	20.018	4.307	0.520
1031.500	591.179	79.989	19.996	103.338	20.018	4.307	0.501
1032.000	591.473	79.988	19.997	103.338	20.016	4.451	0.526
1032.500	591.685	79.988	19.997	103.340	20.019	4.190	0.526
1033.000	591.985	79.989	19.998	103.344	20.020	4.125	0.509
1033.500	592.242	79.990	19.998	103.347	20.024	3.811	0.535
1034.000	592.487	79.989	19.998	103.348	20.025	3.712	0.529
1034.500	592.776	79.988	19.998	103.347	20.025	3.738	0.518
1035.000	593.052	79.990	19.998	103.346	20.031	3.277	0.550
1035.500	593.288	79.990	19.998	103.346	20.029	3.446	0.538
1036.000	593.596	79.990	19.999	103.346	20.031	3.232	0.528
1036.500	593.838	79.990	19.998	103.345	20.031	3.286	0.547
1037.000	594.095	79.989	19.997	103.341	20.034	3.051	0.524
1037.501	594.380	79.989	19.998	103.337	20.037	2.746	0.520
1038.001	594.633	79.989	19.997	103.332	20.038	2.703	0.540
1038.501	594.908	79.989	19.998	103.325	20.040	2.539	0.533
1039.001	595.122	79.990	19.998	103.320	20.040	2.528	0.508
1039.501	595.426	79.989	19.997	103.320	20.042	2.407	0.503
1040.001	595.658	79.990	19.998	103.325	20.041	2.463	0.527
1040.501	595.935	79.991	19.997	103.329	20.042	2.418	0.523
1041.000	596.169	79.990	19.998	103.337	20.046	2.065	0.510
1041.500	596.468	79.987	19.999	103.342	20.047	1.998	0.522
1042.000	596.718	79.989	19.998	103.346	20.046	2.065	0.541
1042.500	596.949	79.990	19.998	103.345	20.051	1.713	0.515
1043.000	597.230	79.989	19.997	103.342	20.050	1.782	0.497
1043.500	597.506	79.989	19.998	103.340	20.054	1.456	0.535
1044.000	597.739	79.991	19.998	103.338	20.056	1.307	0.533
1044.501	598.014	79.990	19.998	103.334	20.058	1.160	0.508
1045.001	598.275	79.991	19.997	103.329	20.056	1.292	0.522
1045.501	598.501	79.989	19.998	103.324	20.057	1.199	0.512
1046.000	598.771	79.989	19.998	103.320	20.058	1.149	0.491
1046.500	599.041	79.991	19.997	103.318	20.058	1.108	0.518
1047.000	599.286	79.991	19.997	103.320	20.058	1.095	0.528
1047.500	599.556	79.989	19.997	103.324	20.059	1.041	0.515
1048.000	599.799	79.989	19.998	103.331	20.059	1.037	0.514
1048.501	600.051	79.990	19.997	103.336	20.061	0.869	0.503
1049.001	600.332	79.990	19.997	103.336	20.065	0.577	0.514
1049.500	600.565	79.991	19.998	103.334	20.065	0.542	0.524
1050.000	600.847	79.990	19.997	103.335	20.063	0.745	0.515
1050.500	601.086	79.990	19.998	103.329	20.063	0.761	0.518
1051.000	601.394	79.991	19.997	103.325	20.066	0.538	0.534
1051.500	601.632	79.990	19.997	103.325	20.067	0.415	0.547
1052.000	601.885	79.989	19.998	103.323	20.065	0.605	0.519
1052.501	602.123	79.991	19.997	103.319	20.067	0.460	0.491
1053.001	602.382	79.991	19.996	103.320	20.067	0.419	0.493
1053.500	602.634	79.990	19.997	103.322	20.069	0.264	0.504
1054.001	602.883	79.990	19.996	103.321	20.068	0.382	0.506
1054.501	603.130	79.990	19.997	103.324	20.070	0.216	0.498
1055.000	603.405	79.990	19.997	103.326	20.069	0.244	0.509
1055.501	603.642	79.991	19.997	103.324	20.072	0.013	0.517
1056.001	603.929	79.992	19.997	103.322	20.070	0.171	0.518
1056.501	604.193	79.990	19.997	103.322	20.068	0.313	0.538
1057.001	604.447	79.990	19.996	103.322	20.072	0.054	0.534
1057.500	604.681	79.990	19.997	103.325	20.069	0.231	0.503
1058.000	604.971	79.989	19.996	103.331	20.074	-0.140	0.506
1058.500	605.228	79.989	19.996	103.335	20.074	-0.136	0.535
1059.000	605.459	79.989	19.997	103.336	20.073	-0.065	0.517
1059.500	605.716	79.991	19.996	103.335	20.071	0.127	0.488
1060.000	605.974	79.989	19.996	103.331	20.073	-0.039	0.502
1060.500	606.201	79.990	19.996	103.326	20.073	-0.024	0.500
1061.000	606.461	79.989	19.996	103.321	20.075	-0.182	0.486
1061.500	606.748	79.991	19.996	103.327	20.076	-0.298	0.517
1062.000	606.988	79.989	19.997	103.329	20.075	-0.190	0.538
1062.500	607.239	79.988	19.997	103.331	20.076	-0.311	0.509
1063.000	607.480	79.990	19.996	103.332	20.079	-0.493	0.491
1063.500	607.751	79.990	19.996	103.332	20.075	-0.210	0.502
1064.000	608.031	79.990	19.997	103.327	20.078	-0.445	0.532
1064.500	608.235	79.990	19.996	103.330	20.076	-0.277	0.517
1065.000	608.496	79.989	19.997	103.335	20.078	-0.469	0.474
1065.500	608.800	79.990	19.997	103.341	20.079	-0.525	0.516
1066.000	609.033	79.990	19.996	103.345	20.076	-0.259	0.551
1066.500	609.293	79.989	19.996	103.349	20.073	-0.067	0.515
1067.000	609.555	79.989	19.996	103.349	20.078	-0.424	0.508
1067.500	609.793	79.991	19.997	103.350	20.078	-0.445	0.511
1068.000	610.075	79.988	19.995	103.351	20.078	-0.430	0.510
1068.501	610.299	79.990	19.997	103.349	20.078	-0.452	0.513
1069.001	610.553	79.989	19.997	103.349	20.076	-0.268	0.492
1069.501	610.823	79.989	19.996	103.348	20.077	-0.331	0.501
1070.000	611.088	79.989	19.997	103.341	20.078	-0.424	0.529
1070.500	611.300	79.990	19.997	103.335	20.076	-0.298	0.506
1071.000	611.604	79.990	19.996	103.335	20.077	-0.402	0.497
1071.500	611.805	79.990	19.996	103.335	20.080	-0.631	0.510
1072.000	612.092	79.989	19.997	103.337	20.080	-0.566	0.496
1072.500	612.374	79.991	19.996	103.344	20.078	-0.443	0.529
1073.000	612.646	79.992	19.997	103.350	20.077	-0.359	0.562
1073.500	612.857	79.991	19.997	103.351	20.076	-0.255	0.519
1074.000	613.137	79.991	19.997	103.350	20.081	-0.642	0.487
1074.500	613.391	79.992	19.996	103.351	20.077	-0.331	0.513
1075.000	613.646	79.989	19.996	103.349	20.078	-0.419	0.522
1075.500	613.904	79.992	19.996	103.347	20.074	-0.166	0.511
1076.000	614.159	79.991	19.996	103.348	20.075	-0.233	0.513
1076.501	614.449	79.991	19.996	103.347	20.077	-0.400	0.529
1077.001	614.691	79.991	19.996	103.342	20.076	-0.300	0.538
1077.500	615.008	79.991	19.996	103.342	20.074	-0.106	0.545
1078.000	615.185	79.991	19.995	103.343	20.077	-0.398	0.527
1078.500	615.471	79.991	19.996	103.342	20.074	-0.166	0.479
1079.000	615.721	79.991	19.996	103.344	20.073	-0.041	0.500
1079.500	615.990	79.991	19.997	103.349	20.071	0.130	0.528
1080.001	616.227	79.992	19.995	103.349	20.075	-0.194	0.512
1080.501	616.492	79.990	19.996	103.352	20.078	-0.432	0.504
1081.000	616.749	79.992	19.996	103.354	20.078	-0.443	0.512
1081.500	616.973	79.992	19.996	103.354	20.074	-0.160	0.501
1082.000	617.238	79.991	19.995	103.353	20.077	-0.391	0.485
1082.500	617.517	79.992	19.997	103.353	20.079	-0.538	0.517
1083.000	617.767	79.991	19.996	103.350	20.076	-0.272	0.537
1083.500	618.027	79.990	19.996	103.349	20.079	-0.504	0.519
1084.000	618.285	79.994	19.996	103.348	20.075	-0.220	0.514
1084.501	618.500	79.992	19.996	103.345	20.077	-0.376	0.496
1085.001	618.771	79.992	19.997	103.344	20.075	-0.179	0.479
1085.501	619.046	79.993	19.997	103.343	20.078	-0.415	0.516
1086.001	619.294	79.992	19.997	103.344	20.077	-0.385	0.535
1086.500	619.547	79.992	19.997	103.343	20.076	-0.259	0.512
1087.000	619.777	79.992	19.997	103.343	20.078	-0.421	0.492
1087.500	620.005	79.991	19.996	103.344	20.081	-0.689	0.470
1088.000	620.273	79.993	19.997	103.347	20.074	-0.127	0.477
1088.500	620.518	79.991	19.996	103.346	20.072	0.022	0.504
1089.000	620.758	79.992	19.996	103.348	20.076	-0.318	0.500
1089.500	621.027	79.991	19.997	103.347	20.074	-0.156	0.497
1090.000	621.317	79.992	19.996	103.347	20.076	-0.283	0.534
1090.500	621.523	79.992	19.996	103.346	20.075	-0.216	0.527
1091.000	621.766	79.992	19.996	103.342	20.074	-0.117	0.472
1091.500	622.010	79.991	19.996	103.341	20.077	-0.341	0.468
1092.000	622.292	79.991	19.998	103.345	20.076	-0.253	0.507
1092.500	622.523	79.990	19.996	103.345	20.074	-0.156	0.520
1093.000	622.768	79.992	19.997	103.346	20.075	-0.190	0.495
1093.500	623.011	79.993	19.996	103.350	20.074	-0.127	0.482
1094.000	623.278	79.991	19.997	103.351	20.075	-0.240	0.499
1094.500	623.536	79.992	19.996	103.351	20.071	0.076	0.518
1095.000	623.772	79.993	19.996	103.351	20.074	-0.151	0.509
1095.500	624.045	79.993	19.997	103.351	20.076	-0.259	0.501
1096.000	624.333	79.992	19.996	103.352	20.070	0.175	0.535
1096.501	624.579	79.991	19.996	103.352	20.076	-0.253	0.547
1097.001	624.820	79.992	19.996	103.352	20.073	-0.069	0.510
1097.500	625.035	79.992	19.996	103.352	20.076	-0.270	0.472
1098.000	625.336	79.993	19.996	103.351	20.074	-0.119	0.486
1098.500	625.566	79.994	19.996	103.349	20.072	0.004	0.524
1099.001	625.822	79.993	19.996	103.348	20.075	-0.186	0.508
1099.501	626.071	79.993	19.997	103.348	20.074	-0.149	0.495
1100.000	626.310	79.994	19.996	103.347	20.075	-0.244	0.496
1100.500	626.577	79.993	19.996	103.347	20.076	-0.253	0.497
1101.000	626.837	79.993	19.997	103.349	20.072	0.035	0.517
1101.500	627.083	79.994	19.996	103.349	20.075	-0.173	0.517
1102.000	627.366	79.992	19.996	103.350	20.078	-0.408	0.518
1102.500	627.576	79.993	19.997	103.350	20.077	-0.380	0.511
1103.001	627.833	79.993	19.996	103.350	20.077	-0.331	0.480
1103.501	628.078	79.993	19.996	103.350	20.076	-0.292	0.484
1104.000	628.319	79.994	19.997	103.351	20.076	-0.272	0.494
1104.500	628.597	79.994	19.996	103.350	20.074	-0.134	0.503
1105.000	628.840	79.993	19.997	103.350	20.077	-0.333	0.521
1105.501	629.073	79.993	19.996	103.350	20.077	-0.378	0.499
1106.001	629.350	79.994	19.997	103.350	20.075	-0.236	0.492
1106.501	629.572	79.992	19.997	103.350	20.074	-0.164	0.504
1107.001	629.795	79.992	19.997	103.349	20.068	0.333	0.472
1107.500	630.073	79.992	19.997	103.348	20.073	-0.039	0.473
1108.000	630.348	79.993	19.997	103.348	20.072	0.060	0.527
1108.500	630.594	79.991	19.997	103.348	20.068	0.357	0.537
1109.001	630.852	79.992	19.997	103.348	20.069	0.249	0.513
1109.501	631.118	79.992	19.996	103.348	20.071	0.136	0.514
1110.000	631.338	79.991	19.997	103.349	20.073	-0.050	0.505
1110.500	631.595	79.990	19.997	103.353	20.068	0.348	0.481
1111.000	631.838	79.990	19.997	103.354	20.071	0.117	0.488
1111.500	632.102	79.991	19.997	103.355	20.069	0.264	0.504
1112.000	632.352	79.990	19.997	103.355	20.073	-0.028	0.511
1112.500	632.619	79.991	19.997	103.355	20.067	0.419	0.515
1113.000	632.873	79.991	19.997	103.353	20.074	-0.119	0.519
1113.500	633.070	79.991	19.998	103.352	20.070	0.197	0.486
1114.000	633.340	79.990	19.997	103.356	20.071	0.095	0.459
1114.500	633.580	79.992	19.997	103.361	20.071	0.143	0.489
1115.000	633.849	79.990	19.997	103.361	20.071	0.078	0.509
1115.500	634.104	79.990	19.997	103.361	20.070	0.197	0.516
1116.000	634.383	79.989	19.997	103.365	20.070	0.164	0.529
1116.501	634.670	79.990	19.998	103.353	20.070	0.151	0.550
1117.001	634.950	79.991	19.996	103.335	20.070	0.223	0.566
1117.500	635.165	79.990	19.997	103.328	20.069	0.294	0.531
1118.000	635.411	79.991	19.997	103.329	20.070	0.216	0.478
1118.500	635.674	79.990	19.997	103.327	20.071	0.147	0.485
1119.000	635.915	79.990	19.996	103.336	20.070	0.153	0.506
1119.500	636.226	79.990	19.997	103.353	20.073	-0.037	0.528
1120.000	636.438	79.991	19.996	103.362	20.072	0.024	0.538
1120.500	636.670	79.991	19.996	103.366	20.075	-0.201	0.484
1121.000	636.889	79.990	19.996	103.381	20.072	0.037	0.447
1121.500	637.176	79.990	19.997	103.405	20.071	0.108	0.478
1122.000	637.449	79.991	19.996	103.406	20.073	-0.052	0.533
1122.500	637.656	79.991	19.997	103.405	20.072	0.063	0.520
1123.000	637.892	79.990	19.997	103.401	20.072	0.019	0.461
1123.500	638.181	79.990	19.997	103.385	20.072	0.039	0.484
1124.000	638.474	79.990	19.996	103.359	20.074	-0.121	0.554
1124.500	638.666	79.989	19.996	103.357	20.073	-0.054	0.533
1125.000	638.917	79.990	19.997	103.361	20.075	-0.173	0.464
1125.500	639.185	79.990	19.997	103.368	20.073	-0.019	0.481
1126.000	639.445	79.990	19.997	103.374	20.073	-0.028	0.524
1126.500	639.703	79.990	19.997	103.378	20.071	0.106	0.523
1127.000	639.975	79.990	19.996	103.380	20.070	0.197	0.524
1127.500	640.192	79.991	19.997	103.381	20.069	0.231	0.510
1128.000	640.430	79.990	19.998	103.376	20.071	0.125	0.472
1128.500	640.684	79.990	19.997	103.372	20.071	0.097	0.473
1129.000	640.933	79.990	19.998	103.371	20.074	-0.089	0.497
1129.500	641.198	79.991	19.997	103.368	20.070	0.223	0.508
1130.001	641.463	79.990	19.997	103.365	20.068	0.359	0.522
1130.501	641.734	79.989	19.998	103.364	20.074	-0.134	0.533
1131.001	641.982	79.989	19.997	103.364	20.070	0.156	0.528
1131.501	642.236	79.989	19.998	103.370	20.069	0.305	0.510
1132.000	642.472	79.989	19.997	103.376	20.066	0.523	0.496
1132.500	642.736	79.988	19.998	103.378	20.066	0.476	0.495
1133.000	642.988	79.989	19.996	103.382	20.067	0.454	0.508
1133.500	643.238	79.988	19.997	103.386	20.063	0.722	0.508
1134.000	643.540	79.991	19.998	103.382	20.067	0.385	0.527
1134.500	643.731	79.989	19.997	103.377	20.065	0.590	0.523
1135.000	643.964	79.990	19.997	103.374	20.067	0.400	0.458
1135.500	644.233	79.989	19.998	103.377	20.067	0.400	0.463
1136.000	644.493	79.989	19.997	103.378	20.066	0.469	0.516
1136.500	644.711	79.989	19.998	103.381	20.066	0.497	0.503
1137.000	644.984	79.990	19.998	103.383	20.066	0.510	0.484
1137.500	645.219	79.989	19.998	103.388	20.067	0.406	0.499
1138.000	645.462	79.989	19.998	103.386	20.065	0.547	0.493
1138.500	645.721	79.988	19.997	103.381	20.068	0.326	0.491
1139.001	645.991	79.989	19.997	103.378	20.064	0.657	0.516
1139.501	646.240	79.989	19.997	103.381	20.067	0.460	0.524
1140.001	646.461	79.989	19.998	103.381	20.066	0.475	0.495
1140.500	646.715	79.990	19.997	103.383	20.068	0.365	0.472
1141.000	646.977	79.989	19.997	103.389	20.070	0.203	0.495
1141.501	647.242	79.988	19.997	103.391	20.066	0.476	0.522
1142.001	647.456	79.989	19.997	103.392	20.068	0.342	0.503
1142.500	647.743	79.989	19.996	103.391	20.065	0.582	0.490
1143.000	647.977	79.988	19.998	103.390	20.067	0.450	0.511
1143.500	648.163	79.988	19.997	103.388	20.067	0.454	0.470
1144.000	648.472	79.988	19.997	103.388	20.067	0.458	0.457
1144.500	648.738	79.989	19.998	103.385	20.067	0.463	0.535
1145.000	648.942	79.990	19.996	103.385	20.072	0.019	0.523
1145.501	649.173	79.989	19.998	103.386	20.070	0.205	0.452
1146.001	649.436	79.989	19.996	103.388	20.066	0.467	0.464
1146.501	649.697	79.989	19.997	103.389	20.068	0.331	0.509
1147.001	649.923	79.990	19.996	103.392	20.068	0.348	0.506
1147.500	650.169	79.990	19.997	103.393	20.065	0.575	0.480
1148.000	650.450	79.991	19.996	103.392	20.067	0.411	0.499
1148.500	650.708	79.990	19.997	103.402	20.066	0.508	0.532
1149.000	650.983	79.990	19.997	103.396	20.069	0.268	0.536
1149.500	651.194	79.990	19.996	103.388	20.066	0.536	0.510
1150.001	651.424	79.990	19.997	103.379	20.067	0.393	0.464
1150.501	651.688	79.990	19.997	103.377	20.063	0.770	0.468
1151.000	651.962	79.990	19.996	103.367	20.065	0.582	0.516
1151.500	652.173	79.990	19.997	103.372	20.065	0.553	0.511
1152.000	652.435	79.990	19.996	103.380	20.065	0.562	0.479
1152.500	652.682	79.991	19.996	103.388	20.065	0.577	0.491
1153.000	652.928	79.991	19.997	103.390	20.064	0.631	0.501
1153.500	653.178	79.991	19.997	103.391	20.067	0.393	0.494
1154.000	653.448	79.990	19.997	103.392	20.066	0.532	0.508
1154.500	653.730	79.992	19.997	103.393	20.065	0.545	0.536
1155.000	653.953	79.991	19.996	103.395	20.065	0.597	0.529
1155.500	654.247	79.992	19.996	103.395	20.064	0.687	0.511
1156.001	654.496	79.992	19.996	103.396	20.064	0.657	0.530
1156.501	654.741	79.992	19.996	103.395	20.069	0.296	0.518
1157.000	654.983	79.993	19.996	103.394	20.064	0.620	0.490
1157.500	655.192	79.992	19.996	103.393	20.066	0.517	0.469
1158.000	655.477	79.992	19.996	103.393	20.069	0.249	0.473
1158.501	655.696	79.992	19.997	103.393	20.067	0.415	0.499
1159.001	655.997	79.991	19.996	103.392	20.068	0.348	0.512
1159.501	656.262	79.992	19.996	103.394	20.068	0.335	0.543
1160.001	656.464	79.992	19.996	103.396	20.068	0.346	0.517
1160.500	656.740	79.992	19.998	103.396	20.068	0.355	0.473
1161.000	657.000	79.993	19.996	103.396	20.068	0.318	0.507
1161.500	657.247	79.991	19.996	103.397	20.066	0.504	0.521
1162.000	657.453	79.992	19.996	103.397	20.066	0.478	0.480
1162.500	657.691	79.991	19.996	103.394	20.068	0.350	0.449
1163.000	657.972	79.992	19.996	103.393	20.062	0.845	0.482
1163.500	658.236	79.991	19.997	103.393	20.068	0.383	0.532
1164.000	658.437	79.992	19.997	103.392	20.066	0.534	0.505
1164.500	658.721	79.991	19.996	103.389	20.067	0.394	0.475
1165.000	658.946	79.991	19.996	103.389	20.067	0.415	0.497
1165.501	659.159	79.991	19.996	103.390	20.069	0.294	0.474
1166.001	659.459	79.991	19.996	103.392	20.067	0.430	0.475
1166.501	659.703	79.991	19.996	103.392	20.067	0.458	0.528
1167.000	659.967	79.990	19.997	103.392	20.066	0.508	0.526
1167.500	660.190	79.990	19.996	103.393	20.065	0.562	0.498
1168.000	660.454	79.990	19.997	103.392	20.063	0.761	0.487
1168.500	660.687	79.990	19.997	103.392	20.063	0.712	0.492
1169.000	660.945	79.991	19.996	103.394	20.062	0.856	0.494
1169.500	661.197	79.991	19.997	103.398	20.064	0.690	0.500
1170.000	661.408	79.990	19.997	103.397	20.062	0.848	0.487
1170.500	661.738	79.992	19.996	103.397	20.062	0.846	0.502
1171.000	661.955	79.991	19.996	103.397	20.058	1.135	0.544
1171.500	662.216	79.990	19.996	103.396	20.064	0.638	0.512
1172.000	662.489	79.992	19.997	103.394	20.064	0.683	0.506
1172.500	662.699	79.991	19.997	103.400	20.062	0.848	0.509
1173.001	662.973	79.992	19.996	103.400	20.063	0.727	0.484
1173.501	663.239	79.992	19.996	103.401	20.063	0.761	0.512
1174.000	663.467	79.992	19.996	103.402	20.062	0.817	0.516
1174.501	663.725	79.992	19.995	103.402	20.060	0.980	0.490
1175.001	663.947	79.993	19.996	103.402	20.059	1.040	0.483
1175.501	664.209	79.992	19.996	103.406	20.061	0.895	0.482
1176.000	664.462	79.993	19.995	103.411	20.062	0.787	0.500
1176.500	664.721	79.994	19.996	103.413	20.065	0.562	0.514
1177.000	664.874	79.992	19.996	103.411	20.063	0.716	0.463
1177.500	665.223	79.992	19.996	103.412	20.064	0.668	0.457
1178.000	665.448	79.992	19.995	103.415	20.065	0.590	0.537
1178.500	665.732	79.992	19.995	103.417	20.063	0.707	0.542
1179.000	665.976	79.993	19.995	103.420	20.061	0.865	0.519
1179.500	666.172	79.992	19.997	103.428	20.062	0.796	0.484
1180.001	666.467	79.993	19.996	103.429	20.061	0.865	0.465
1180.501	666.731	79.992	19.996	103.430	20.062	0.805	0.525
1181.001	666.972	79.994	19.996	103.430	20.066	0.471	0.531
1181.500	667.253	79.994	19.995	103.431	20.062	0.805	0.513
1182.001	667.482	79.994	19.996	103.431	20.064	0.664	0.517
1182.501	667.728	79.992	19.996	103.431	20.062	0.779	0.493
1183.001	667.973	79.993	19.996	103.429	20.062	0.826	0.483
1183.501	668.203	79.993	19.995	103.430	20.060	0.982	0.483
1184.001	668.443	79.992	19.995	103.430	20.059	1.068	0.473
1184.501	668.715	79.993	19.995	103.430	20.062	0.807	0.491
1185.000	668.942	79.992	19.996	103.431	20.061	0.867	0.505
1185.500	669.198	79.993	19.996	103.432	20.058	1.116	0.491
1186.000	669.497	79.994	19.996	103.432	20.061	0.917	0.519
1186.500	669.721	79.993	19.996	103.431	20.061	0.926	0.539
1187.000	669.950	79.992	19.996	103.431	20.060	0.980	0.488
1187.500	670.189	79.991	19.996	103.431	20.059	1.029	0.461
1188.000	670.468	79.992	19.995	103.432	20.058	1.125	0.494
1188.500	670.724	79.992	19.995	103.432	20.057	1.233	0.526
1189.000	670.965	79.991	19.996	103.432	20.058	1.094	0.515
1189.500	671.260	79.991	19.996	103.432	20.063	0.757	0.516
1190.000	671.469	79.991	19.996	103.432	20.058	1.136	0.520
1190.501	671.749	79.990	19.996	103.431	20.059	1.047	0.496
1191.001	672.010	79.990	19.996	103.431	20.060	0.969	0.515
1191.500	672.254	79.990	19.996	103.432	20.059	1.075	0.523
1192.000	672.491	79.990	19.996	103.432	20.058	1.144	0.493
1192.500	672.763	79.989	19.997	103.432	20.061	0.926	0.495
1193.001	672.969	79.989	19.997	103.432	20.060	1.001	0.494
1193.501	673.220	79.988	19.997	103.435	20.061	0.900	0.467
1194.001	673.490	79.989	19.995	103.437	20.060	1.008	0.489
1194.501	673.763	79.990	19.996	103.437	20.060	0.954	0.532
1195.001	674.006	79.991	19.996	103.437	20.059	1.034	0.530
1195.501	674.278	79.989	19.996	103.435	20.059	1.064	0.516
1196.000	674.513	79.990	19.997	103.432	20.058	1.144	0.511
1196.501	674.801	79.990	19.996	103.429	20.060	0.993	0.515
1197.001	675.044	79.989	19.996	103.429	20.057	1.196	0.527
1197.500	675.270	79.990	19.997	103.429	20.058	1.097	0.500
1198.000	675.550	79.990	19.997	103.430	20.058	1.161	0.488
1198.500	675.827	79.991	19.997	103.432	20.054	1.408	0.531
1199.001	676.052	79.989	19.997	103.432	20.055	1.380	0.530
1199.501	676.316	79.990	19.996	103.432	20.058	1.099	0.496
1200.001	676.584	79.990	19.996	103.437	20.058	1.146	0.510
1200.501	676.790	79.990	19.997	103.441	20.056	1.302	0.503
1201.001	677.059	79.989	19.996	103.441	20.056	1.257	0.474
1201.501	677.297	79.989	19.996	103.441	20.055	1.386	0.491
1202.002	677.562	79.989	19.997	103.442	20.055	1.402	0.506
1202.502	677.797	79.988	19.997	103.436	20.056	1.300	0.502
1203.001	678.066	79.990	19.995	103.432	20.056	1.311	0.502
1203.500	678.330	79.990	19.997	103.432	20.056	1.269	0.518
1204.000	678.583	79.990	19.996	103.433	20.056	1.311	0.525
1204.501	678.812	79.990	19.996	103.434	20.057	1.248	0.499
1205.001	679.127	79.991	19.996	103.438	20.058	1.148	0.513
1205.500	679.351	79.990	19.997	103.439	20.056	1.252	0.542
1206.000	679.624	79.990	19.996	103.440	20.056	1.300	0.518
1206.500	679.857	79.990	19.996	103.442	20.060	1.001	0.501
1207.000	680.150	79.990	19.996	103.440	20.061	0.898	0.516
1207.500	680.391	79.991	19.996	103.438	20.057	1.220	0.530
1208.000	680.642	79.990	19.996	103.440	20.058	1.107	0.513
1208.500	680.898	79.989	19.996	103.439	20.058	1.151	0.500
1209.000	681.157	79.990	19.996	103.439	20.057	1.233	0.511
1209.500	681.402	79.991	19.997	103.441	20.056	1.291	0.509
1210.000	681.654	79.990	19.996	103.441	20.059	1.086	0.500
1210.500	681.888	79.990	19.996	103.439	20.058	1.120	0.492
1211.000	682.150	79.990	19.996	103.443	20.057	1.211	0.491
1211.500	682.423	79.993	19.997	103.442	20.057	1.207	0.516
1212.000	682.641	79.992	19.996	103.439	20.057	1.231	0.513
1212.501	682.892	79.991	19.995	103.439	20.061	0.924	0.479
1213.001	683.131	79.991	19.998	103.437	20.055	1.365	0.479
1213.500	683.450	79.991	19.997	103.432	20.058	1.157	0.524
1214.000	683.694	79.990	19.996	103.432	20.056	1.309	0.561
1214.500	683.937	79.991	19.996	103.431	20.059	1.090	0.525
1215.000	684.167	79.991	19.997	103.430	20.057	1.239	0.480
1215.500	684.452	79.992	19.997	103.430	20.057	1.194	0.494
1216.000	684.707	79.990	19.997	103.431	20.056	1.276	0.528
1216.501	684.957	79.991	19.996	103.432	20.054	1.421	0.522
1217.001	685.220	79.991	19.997	103.435	20.054	1.460	0.509
1217.500	685.482	79.991	19.996	103.437	20.053	1.555	0.519
1218.000	685.725	79.990	19.997	103.439	20.051	1.713	0.515
1218.501	686.000	79.989	19.997	103.442	20.051	1.644	0.512
1219.001	686.213	79.990	19.997	103.446	20.051	1.659	0.503
1219.501	686.499	79.990	19.997	103.449	20.052	1.566	0.494
1220.001	686.778	79.990	19.997	103.454	20.051	1.709	0.532
1220.501	687.024	79.991	19.997	103.455	20.055	1.361	0.545
1221.000	687.294	79.990	19.997	103.453	20.054	1.467	0.521
1221.500	687.540	79.991	19.996	103.448	20.052	1.631	0.516
1222.000	687.818	79.987	19.998	103.442	20.049	1.856	0.520
1222.500	688.110	79.988	19.997	103.440	20.051	1.687	0.547
1223.001	688.328	79.989	19.997	103.437	20.050	1.767	0.540
1223.501	688.587	79.991	19.997	103.436	20.052	1.637	0.493
1224.001	688.811	79.989	19.998	103.440	20.050	1.786	0.480
1224.501	689.070	79.991	19.998	103.443	20.051	1.715	0.483
1225.000	689.353	79.989	19.998	103.443	20.048	1.891	0.512
1225.500	689.616	79.989	19.998	103.446	20.050	1.768	0.544
1226.000	689.842	79.988	19.997	103.451	20.048	1.933	0.518
1226.500	690.119	79.989	19.998	103.448	20.049	1.879	0.496
1227.000	690.388	79.990	19.999	103.452	20.049	1.837	0.524
1227.500	690.613	79.989	19.997	103.454	20.049	1.811	0.520
1228.000	690.853	79.990	19.998	103.452	20.050	1.772	0.479
1228.500	691.140	79.989	19.997	103.448	20.051	1.657	0.496
1229.000	691.392	79.990	19.998	103.449	20.050	1.800	0.533
1229.500	691.643	79.990	19.997	103.454	20.048	1.936	0.521
1230.000	691.891	79.990	19.997	103.456	20.052	1.638	0.501
1230.500	692.155	79.990	19.998	103.462	20.048	1.952	0.506
1231.000	692.377	79.990	19.997	103.466	20.048	1.913	0.499
1231.500	692.599	79.990	19.996	103.479	20.050	1.785	0.465
1232.000	692.852	79.991	19.996	103.480	20.049	1.811	0.460
1232.500	693.130	79.991	19.997	103.469	20.047	2.021	0.503
1233.000	693.371	79.990	19.996	103.457	20.046	2.081	0.525
1233.500	693.631	79.990	19.997	103.435	20.048	1.936	0.510
1234.000	693.829	79.990	19.997	103.409	20.045	2.135	0.479
1234.500	694.149	79.991	19.996	103.390	20.047	1.999	0.488
1235.000	694.421	79.990	19.996	103.393	20.046	2.092	0.555
1235.500	694.603	79.992	19.996	103.421	20.046	2.038	0.523
1236.000	694.925	79.992	19.997	103.461	20.046	2.081	0.479
1236.500	695.111	79.993	19.996	103.485	20.045	2.133	0.506
1237.000	695.406	79.992	19.997	103.497	20.045	2.138	0.495
1237.500	695.669	79.992	19.996	103.504	20.046	2.043	0.520
1238.000	695.917	79.993	19.996	103.488	20.045	2.121	0.534
1238.500	696.196	79.992	19.996	103.469	20.045	2.155	0.519
1239.000	696.428	79.993	19.997	103.462	20.046	2.054	0.519
1239.501	696.680	79.992	19.996	103.463	20.046	2.084	0.497
1240.001	696.937	79.992	19.996	103.463	20.044	2.251	0.497
1240.500	697.191	79.993	19.996	103.466	20.048	1.898	0.510
1241.001	697.432	79.993	19.996	103.472	20.046	2.108	0.503
1241.501	697.709	79.993	19.996	103.473	20.048	1.937	0.506
1242.000	697.979	79.991	19.997	103.473	20.046	2.117	0.532
1242.500	698.221	79.992	19.996	103.476	20.044	2.275	0.530
1243.000	698.490	79.992	19.996	103.476	20.044	2.275	0.512
1243.500	698.706	79.991	19.997	103.475	20.044	2.249	0.498
1244.000	699.003	79.991	19.997	103.476	20.041	2.433	0.498
1244.501	699.230	79.991	19.996	103.476	20.043	2.335	0.518
1245.001	699.477	79.993	19.996	103.476	20.041	2.478	0.500
1245.500	699.750	79.992	19.996	103.473	20.042	2.383	0.497
1246.000	700.000	79.991	19.996	103.475	20.046	2.086	0.521
1246.500	700.236	79.990	19.995	103.477	20.042	2.389	0.505
1247.000	700.492	79.992	19.995	103.479	20.044	2.205	0.489
1247.500	700.751	79.990	19.995	103.480	20.045	2.195	0.503
1248.000	701.008	79.991	19.996	103.480	20.042	2.396	0.515
1248.500	701.255	79.992	19.996	103.481	20.044	2.214	0.510
1249.000	701.540	79.991	19.996	103.484	20.044	2.238	0.518
1249.500	701.766	79.991	19.996	103.487	20.044	2.268	0.521
1250.000	702.043	79.992	19.997	103.491	20.046	2.089	0.507
1250.500	702.286	79.991	19.995	103.498	20.044	2.234	0.512
1251.000	702.528	79.991	19.997	103.501	20.043	2.324	0.503
1251.500	702.811	79.992	19.997	103.504	20.043	2.337	0.505
1252.000	703.080	79.991	19.996	103.509	20.042	2.361	0.538
1252.500	703.299	79.992	19.997	103.510	20.043	2.351	0.520
1253.000	703.566	79.990	19.997	103.511	20.042	2.418	0.487
1253.500	703.803	79.992	19.997	103.512	20.043	2.325	0.495
1254.000	704.074	79.992	19.996	103.512	20.044	2.225	0.506
1254.501	704.296	79.990	19.996	103.512	20.044	2.264	0.501
1255.001	704.566	79.993	19.997	103.511	20.042	2.413	0.493
1255.500	704.833	79.992	19.996	103.509	20.041	2.465	0.514
1256.000	705.074	79.992	19.996	103.506	20.043	2.333	0.522
1256.500	705.340	79.992	19.996	103.506	20.043	2.346	0.507
1257.000	705.568	79.992	19.997	103.506	20.042	2.359	0.500
1257.500	705.847	79.992	19.996	103.506	20.041	2.481	0.500
1258.000	706.101	79.995	19.996	103.508	20.041	2.502	0.520
1258.500	706.312	79.993	19.996	103.511	20.039	2.656	0.499
1259.000	706.593	79.993	19.996	103.512	20.044	2.240	0.478
1259.500	706.838	79.993	19.996	103.514	20.041	2.448	0.509
1260.000	707.096	79.993	19.996	103.514	20.044	2.202	0.514
1260.500	707.382	79.993	19.996	103.513	20.039	2.613	0.524
1261.000	707.644	79.994	19.995	103.513	20.040	2.561	0.546
1261.500	707.838	79.993	19.996	103.511	20.043	2.340	0.502
1262.000	708.130	79.992	19.996	103.510	20.040	2.531	0.471
1262.500	708.382	79.994	19.995	103.511	20.038	2.735	0.515
1263.000	708.667	79.994	19.995	103.512	20.038	2.724	0.541
1263.500	708.897	79.993	19.995	103.513	20.038	2.683	0.526
1264.000	709.163	79.994	19.996	103.513	20.043	2.317	0.505
1264.500	709.425	79.995	19.995	103.512	20.039	2.609	0.512
1265.000	709.693	79.995	19.996	103.512	20.038	2.674	0.529
1265.501	709.908	79.994	19.995	103.511	20.041	2.473	0.506
1266.001	710.185	79.995	19.995	103.514	20.038	2.702	0.488
1266.500	710.455	79.993	19.995	103.517	20.036	2.841	0.520
1267.000	710.698	79.993	19.996	103.518	20.038	2.678	0.530
1267.501	710.954	79.992	19.996	103.521	20.039	2.650	0.506
1268.001	711.226	79.992	19.996	103.525	20.036	2.828	0.514
1268.500	711.482	79.993	19.995	103.521	20.037	2.823	0.528
1269.000	711.743	79.992	19.996	103.520	20.037	2.797	0.522
1269.501	711.981	79.991	19.995	103.524	20.037	2.812	0.508
1270.001	712.265	79.992	19.995	103.529	20.037	2.773	0.511
1270.500	712.486	79.991	19.995	103.530	20.034	3.031	0.514
1271.001	712.746	79.990	19.995	103.538	20.034	3.012	0.493
1271.501	713.011	79.991	19.996	103.543	20.034	3.005	0.503
1272.000	713.277	79.991	19.996	103.545	20.036	2.892	0.528
1272.500	713.508	79.991	19.995	103.545	20.033	3.087	0.514
1273.000	713.784	79.992	19.996	103.546	20.031	3.237	0.502
1273.500	713.998	79.991	19.996	103.546	20.036	2.890	0.498
1274.001	714.314	79.992	19.996	103.546	20.036	2.899	0.510
1274.501	714.526	79.991	19.996	103.547	20.035	2.927	0.529
1275.001	714.851	79.992	19.996	103.549	20.036	2.877	0.533
1275.501	715.102	79.991	19.996	103.549	20.034	3.007	0.556
1276.000	715.326	79.991	19.996	103.549	20.036	2.865	0.525
1276.500	715.602	79.991	19.997	103.549	20.034	2.995	0.488
1277.000	715.850	79.992	19.996	103.549	20.033	3.107	0.512
1277.501	716.110	79.992	19.996	103.548	20.035	2.938	0.516
1278.001	716.359	79.991	19.996	103.548	20.037	2.752	0.509
1278.500	716.651	79.991	19.997	103.547	20.032	3.185	0.525
1279.001	716.914	79.990	19.995	103.547	20.033	3.129	0.548
1279.501	717.172	79.992	19.997	103.547	20.033	3.072	0.538
1280.001	717.422	79.991	19.996	103.547	20.034	3.053	0.515
1280.501	717.642	79.991	19.997	103.547	20.035	2.979	0.489
1281.000	717.949	79.990	19.997	103.546	20.034	3.032	0.498
1281.500	718.210	79.990	19.997	103.544	20.033	3.117	0.547
1282.000	718.434	79.991	19.997	103.542	20.033	3.117	0.526
1282.500	718.695	79.991	19.997	103.540	20.031	3.282	0.485
1283.000	718.943	79.990	19.996	103.538	20.033	3.137	0.497
1283.500	719.189	79.992	19.997	103.538	20.032	3.190	0.501
1284.000	719.462	79.991	19.997	103.540	20.031	3.238	0.507
1284.500	719.698	79.990	19.997	103.541	20.034	3.028	0.514
1285.000	719.975	79.991	19.996	103.544	20.032	3.214	0.511
1285.500	720.222	79.992	19.996	103.546	20.030	3.346	0.519
1286.000	720.453	79.991	19.996	103.547	20.029	3.407	0.501
1286.500	720.714	79.992	19.997	103.548	20.029	3.402	0.485
1287.000	720.949	79.991	19.997	103.552	20.028	3.477	0.494
1287.500	721.212	79.992	19.997	103.553	20.035	2.968	0.497
1288.000	721.465	79.993	19.997	103.551	20.029	3.417	0.506
1288.500	721.738	79.991	19.997	103.549	20.027	3.568	0.521
1289.000	721.974	79.991	19.998	103.556	20.027	3.572	0.518
1289.500	722.253	79.992	19.996	103.559	20.030	3.358	0.512
1290.000	722.482	79.991	19.996	103.562	20.030	3.313	0.511
1290.500	722.741	79.990	19.996	103.551	20.027	3.566	0.499
1291.000	723.001	79.991	19.998	103.540	20.030	3.334	0.504
1291.500	723.289	79.990	19.996	103.524	20.030	3.313	0.534
1292.000	723.515	79.992	19.997	103.513	20.031	3.278	0.531
1292.500	723.758	79.990	19.996	103.507	20.027	3.605	0.491
1293.000	723.983	79.989	19.997	103.520	20.029	3.453	0.468
1293.500	724.235	79.991	19.998	103.534	20.031	3.267	0.473
1294.000	724.499	79.991	19.997	103.548	20.029	3.447	0.497
1294.500	724.762	79.991	19.997	103.567	20.030	3.362	0.521
1295.000	725.033	79.991	19.997	103.583	20.030	3.369	0.531
1295.500	725.270	79.990	19.997	103.592	20.028	3.465	0.522
1296.000	725.534	79.992	19.997	103.594	20.030	3.374	0.504
1296.500	725.767	79.990	19.997	103.588	20.032	3.153	0.499
1297.000	726.022	79.992	19.997	103.574	20.029	3.452	0.492
1297.500	726.251	79.991	19.998	103.558	20.031	3.265	0.486
1298.000	726.500	79.991	19.997	103.549	20.028	3.525	0.481
1298.500	726.768	79.993	19.997	103.546	20.025	3.730	0.497
1299.000	727.001	79.991	19.996	103.546	20.028	3.507	0.509
1299.500	727.281	79.990	19.998	103.545	20.029	3.458	0.507
1300.000	727.505	79.990	19.997	103.545	20.031	3.289	0.509
1300.500	727.771	79.990	19.997	103.545	20.030	3.349	0.497
1301.000	728.004	79.991	19.996	103.546	20.030	3.362	0.494
1301.500	728.276	79.990	19.998	103.546	20.028	3.475	0.502
1302.000	728.496	79.991	19.997	103.546	20.029	3.432	0.499
1302.500	728.757	79.990	19.998	103.546	20.028	3.464	0.487
1303.000	728.995	79.991	19.996	103.546	20.029	3.431	0.490
1303.500	729.236	79.989	19.996	103.545	20.028	3.496	0.489
1304.000	729.507	79.990	19.996	103.545	20.027	3.587	0.496
1304.500	729.782	79.991	19.998	103.545	20.025	3.721	0.529
1305.000	730.004	79.991	19.997	103.545	20.029	3.429	0.521
1305.500	730.243	79.991	19.997	103.546	20.028	3.530	0.479
1306.000	730.493	79.990	19.997	103.554	20.026	3.632	0.475
1306.501	730.721	79.990	19.998	103.557	20.027	3.567	0.484
1307.001	731.018	79.989	19.997	103.557	20.030	3.377	0.501
1307.501	731.250	79.990	19.997	103.558	20.028	3.470	0.527
1308.000	731.523	79.990	19.997	103.556	20.029	3.396	0.517
1308.501	731.714	79.989	19.998	103.549	20.026	3.615	0.484
1309.001	732.003	79.990	19.997	103.546	20.029	3.452	0.472
1309.500	732.274	79.990	19.997	103.546	20.027	3.611	0.520
1310.000	732.541	79.990	19.997	103.546	20.026	3.641	0.549
1310.500	732.766	79.991	19.998	103.546	20.028	3.513	0.515
1311.000	733.004	79.990	19.997	103.544	20.028	3.478	0.478
1311.500	733.279	79.990	19.998	103.544	20.029	3.383	0.488
1312.000	733.517	79.990	19.998	103.544	20.030	3.334	0.513
1312.501	733.750	79.990	19.998	103.544	20.028	3.509	0.492
1313.001	734.001	79.990	19.998	103.544	20.029	3.389	0.478
1313.501	734.295	79.990	19.998	103.543	20.030	3.317	0.515
1314.000	734.518	79.991	19.998	103.540	20.032	3.144	0.531
1314.500	734.736	79.990	19.998	103.534	20.027	3.603	0.479
1315.001	734.992	79.991	19.998	103.528	20.028	3.477	0.458
1315.501	735.284	79.990	19.997	103.523	20.029	3.377	0.511
1316.001	735.525	79.991	19.997	103.522	20.028	3.490	0.540
1316.501	735.748	79.992	19.997	103.519	20.033	3.115	0.499
1317.000	735.991	79.990	19.997	103.521	20.031	3.273	0.465
1317.500	736.255	79.990	19.998	103.519	20.036	2.860	0.487
1318.000	736.491	79.991	19.998	103.518	20.034	2.998	0.504
1318.500	736.771	79.992	19.997	103.515	20.033	3.068	0.508
1319.000	736.976	79.992	19.997	103.514	20.033	3.130	0.500
1319.500	737.234	79.992	19.998	103.512	20.033	3.076	0.474
1320.001	737.497	79.991	19.996	103.512	20.033	3.076	0.492
1320.501	737.747	79.992	19.998	103.531	20.036	2.827	0.517
1321.001	737.976	79.991	19.997	103.528	20.035	2.935	0.496
1321.501	738.265	79.991	19.997	103.515	20.034	2.993	0.498
1322.000	738.518	79.991	19.998	103.507	20.035	2.917	0.530
1322.500	738.771	79.993	19.996	103.500	20.039	2.660	0.524
1323.000	739.009	79.991	19.997	103.475	20.035	2.928	0.499
1323.500	739.227	79.992	19.998	103.477	20.037	2.818	0.474
1324.000	739.537	79.991	19.997	103.487	20.037	2.785	0.492
1324.501	739.773	79.992	19.998	103.488	20.037	2.766	0.537
1325.001	740.022	79.991	19.997	103.487	20.040	2.575	0.516
1325.501	740.313	79.992	19.997	103.484	20.042	2.393	0.513
1326.001	740.558	79.991	19.997	103.477	20.039	2.588	0.538
1326.500	740.785	79.991	19.998	103.472	20.041	2.471	0.504
1327.001	741.053	79.990	19.996	103.470	20.046	2.106	0.484
1327.501	741.305	79.990	19.997	103.470	20.043	2.296	0.508
1328.000	741.570	79.991	19.997	103.469	20.042	2.427	0.519
1328.500	741.841	79.991	19.996	103.465	20.044	2.261	0.526
1329.001	742.088	79.991	19.996	103.463	20.043	2.291	0.527
1329.501	742.371	79.991	19.996	103.461	20.044	2.233	0.524
1330.000	742.596	79.991	19.997	103.459	20.042	2.390	0.519
1330.500	742.846	79.991	19.996	103.455	20.048	1.904	0.491
1331.000	743.125	79.991	19.996	103.453	20.046	2.075	0.502
1331.500	743.399	79.991	19.996	103.446	20.045	2.133	0.541
