Sample ID:	C:\MCC\MCC Cal\Test\PMMA_R03_MCC_30K_min_211015_R1.txt
Sample Weight (mg):	4.61
Heating Rate (C/s):	0.5
Combustor Temp (C):	900
N2 Flow Rate (cc/min):	80
O2 Flow Rate (cc/min):	20
Calibration File:	C:\MCC\MCC Cal\Coeff1 JN10440_30_210304.txt.txt
T Correction Coefficients:	0	1.024463	0
Time Shift (s):	14
*
Time (s)	Temperature (C)	N2 flow rate (cc/min)	O2 flow rate (cc/min)	Flow Rate (cc/min)	Oxygen (%)	HRR (W/g)	Heating rate (C/s)
0.000	109.718	79.993	19.997	102.702	20.036	0.140	0.008
0.500	109.740	79.992	19.996	102.701	20.041	-0.205	0.024
1.000	109.741	79.992	19.997	102.700	20.035	0.174	0.032
1.500	109.707	79.993	19.996	102.699	20.039	-0.085	-0.005
2.000	109.722	79.992	19.996	102.700	20.039	-0.066	-0.026
2.500	109.731	79.992	19.996	102.700	20.035	0.163	0.003
3.000	109.704	79.993	19.996	102.701	20.032	0.402	0.003
3.500	109.721	79.994	19.996	102.702	20.038	-0.042	-0.014
4.000	109.699	79.991	19.996	102.702	20.037	0.070	-0.008
4.500	109.739	79.993	19.995	102.702	20.037	0.053	0.007
5.000	109.690	79.993	19.995	102.702	20.038	-0.046	0.005
5.500	109.707	79.992	19.996	102.703	20.035	0.199	-0.021
6.000	109.740	79.992	19.996	102.703	20.038	0.021	0.009
6.500	109.737	79.994	19.995	102.703	20.034	0.235	0.040
7.000	109.714	79.992	19.995	102.703	20.034	0.273	0.002
7.500	109.727	79.994	19.996	102.703	20.036	0.133	-0.018
8.000	109.721	79.993	19.996	102.704	20.036	0.159	-0.001
8.500	109.725	79.992	19.994	102.705	20.035	0.175	0.002
9.000	109.706	79.993	19.995	102.705	20.037	0.068	-0.008
9.500	109.699	79.994	19.995	102.705	20.037	0.049	-0.020
10.000	109.686	79.994	19.996	102.706	20.035	0.184	-0.023
10.501	109.682	79.994	19.995	102.705	20.036	0.118	-0.019
11.001	109.677	79.992	19.996	102.706	20.037	0.036	-0.013
11.500	109.664	79.994	19.996	102.706	20.035	0.224	-0.013
12.000	109.667	79.993	19.995	102.711	20.034	0.245	-0.014
12.500	109.679	79.994	19.995	102.718	20.035	0.173	0.002
13.000	109.674	79.994	19.996	102.725	20.034	0.285	0.011
13.500	109.688	79.993	19.996	102.732	20.036	0.156	0.009
14.000	109.682	79.993	19.995	102.739	20.030	0.513	0.008
14.500	109.707	79.995	19.994	102.742	20.035	0.213	0.013
15.000	109.743	79.994	19.995	102.742	20.031	0.498	0.040
15.500	109.708	79.994	19.996	102.743	20.030	0.543	0.031
16.000	109.725	79.993	19.996	102.747	20.027	0.718	-0.009
16.500	109.687	79.995	19.996	102.755	20.028	0.710	-0.020
17.000	109.690	79.994	19.995	102.762	20.027	0.764	-0.028
17.500	109.688	79.996	19.994	102.772	20.027	0.750	-0.017
18.000	109.719	79.994	19.996	102.784	20.025	0.864	0.015
18.500	109.721	79.996	19.994	102.795	20.021	1.144	0.031
19.000	109.739	79.995	19.995	102.804	20.019	1.318	0.027
19.500	109.724	79.996	19.996	102.818	20.021	1.151	0.011
20.000	109.753	79.996	19.995	102.829	20.018	1.353	0.008
20.500	109.757	79.996	19.994	102.837	20.019	1.326	0.024
21.000	109.773	79.996	19.996	102.843	20.014	1.624	0.027
21.500	109.809	79.995	19.995	102.849	20.017	1.478	0.036
22.000	109.821	79.993	19.995	102.852	20.019	1.341	0.050
22.500	109.845	79.995	19.996	102.860	20.015	1.564	0.042
23.000	109.873	79.996	19.995	102.866	20.016	1.518	0.044
23.500	109.889	79.996	19.995	102.869	20.013	1.716	0.048
24.000	109.918	79.996	19.995	102.870	20.011	1.891	0.044
24.500	109.969	79.995	19.995	102.868	20.011	1.856	0.063
25.000	109.986	79.994	19.995	102.865	20.010	1.929	0.074
25.500	110.033	79.996	19.995	102.867	20.008	2.071	0.066
26.000	110.066	79.994	19.996	102.869	20.010	1.959	0.072
26.500	110.115	79.995	19.996	102.874	20.007	2.132	0.081
27.000	110.113	79.995	19.995	102.875	20.008	2.062	0.064
27.500	110.226	79.995	19.996	102.875	20.009	2.016	0.079
28.000	110.232	79.995	19.995	102.874	20.007	2.147	0.115
28.500	110.277	79.995	19.995	102.870	20.007	2.121	0.085
29.000	110.331	79.994	19.995	102.866	20.008	2.052	0.075
29.500	110.403	79.995	19.995	102.871	20.005	2.297	0.112
30.000	110.428	79.995	19.996	102.873	20.008	2.109	0.112
30.500	110.456	79.995	19.995	102.873	20.005	2.267	0.076
31.000	110.526	79.994	19.995	102.877	20.005	2.279	0.076
31.500	110.625	79.995	19.995	102.882	20.006	2.222	0.133
32.000	110.655	79.995	19.995	102.884	20.004	2.344	0.149
32.500	110.686	79.994	19.995	102.889	20.004	2.340	0.095
33.000	110.782	79.995	19.995	102.895	20.001	2.551	0.094
33.500	110.820	79.995	19.996	102.900	20.000	2.602	0.131
34.000	110.902	79.996	19.996	102.902	20.003	2.440	0.127
34.500	110.964	79.996	19.996	102.903	20.003	2.429	0.132
35.000	111.071	79.995	19.995	102.903	20.001	2.556	0.156
35.500	111.131	79.995	19.996	102.902	20.003	2.459	0.168
36.000	111.233	79.995	19.995	102.903	20.002	2.491	0.165
36.500	111.286	79.994	19.996	102.909	20.002	2.471	0.159
37.000	111.361	79.995	19.995	102.912	20.002	2.499	0.141
37.500	111.422	79.994	19.995	102.913	20.002	2.507	0.132
38.000	111.499	79.995	19.995	102.913	20.000	2.665	0.137
38.500	111.600	79.994	19.996	102.912	19.998	2.806	0.159
39.000	111.656	79.995	19.995	102.906	19.999	2.711	0.168
39.500	111.721	79.996	19.995	102.903	19.999	2.737	0.139
40.000	111.808	79.995	19.995	102.902	19.999	2.733	0.137
40.500	111.888	79.996	19.994	102.903	20.002	2.511	0.159
41.000	112.005	79.996	19.996	102.910	19.997	2.848	0.182
41.500	112.063	79.996	19.996	102.917	20.000	2.637	0.186
42.001	112.136	79.997	19.996	102.921	19.999	2.705	0.153
42.501	112.251	79.996	19.996	102.925	19.999	2.734	0.160
43.000	112.375	79.996	19.994	102.930	20.000	2.654	0.213
43.500	112.444	79.997	19.995	102.926	19.997	2.819	0.216
44.000	112.566	79.997	19.994	102.924	19.996	2.920	0.192
44.500	112.615	79.996	19.994	102.926	19.996	2.886	0.181
45.000	112.689	79.997	19.994	102.924	19.994	3.057	0.147
45.500	112.833	79.996	19.995	102.919	19.996	2.922	0.170
46.000	112.924	79.998	19.995	102.917	19.998	2.806	0.227
46.500	113.042	79.996	19.993	102.916	19.995	2.954	0.222
47.000	113.142	79.996	19.995	102.913	19.996	2.903	0.213
47.500	113.248	79.996	19.995	102.918	19.993	3.116	0.212
48.000	113.319	79.995	19.995	102.925	19.998	2.791	0.192
48.500	113.436	79.997	19.993	102.931	19.996	2.935	0.183
49.000	113.538	79.995	19.995	102.933	19.994	3.019	0.204
49.500	113.678	79.995	19.994	102.936	19.992	3.215	0.230
50.000	113.758	79.995	19.995	102.937	19.992	3.201	0.230
50.500	113.921	79.996	19.995	102.937	19.992	3.173	0.232
51.000	114.014	79.995	19.995	102.938	19.991	3.232	0.250
51.500	114.127	79.994	19.995	102.940	19.993	3.104	0.231
52.000	114.224	79.994	19.994	102.941	19.991	3.291	0.208
52.500	114.324	79.992	19.996	102.942	19.991	3.264	0.204
53.000	114.462	79.994	19.996	102.942	19.990	3.323	0.217
53.500	114.558	79.994	19.996	102.942	19.991	3.228	0.236
54.000	114.682	79.994	19.995	102.942	19.988	3.449	0.227
54.500	114.827	79.993	19.996	102.945	19.993	3.137	0.245
55.000	114.949	79.995	19.996	102.945	19.993	3.151	0.268
55.500	115.094	79.993	19.996	102.944	19.992	3.170	0.267
56.000	115.226	79.993	19.996	102.944	19.993	3.107	0.272
56.500	115.364	79.996	19.995	102.944	19.990	3.322	0.273
57.000	115.489	79.995	19.996	102.941	19.992	3.202	0.267
57.500	115.612	79.993	19.996	102.941	19.989	3.377	0.256
58.000	115.715	79.994	19.996	102.943	19.990	3.297	0.237
58.501	115.848	79.994	19.996	102.944	19.991	3.240	0.231
59.001	115.965	79.993	19.996	102.944	19.989	3.389	0.243
59.500	116.139	79.993	19.996	102.944	19.988	3.448	0.270
60.000	116.285	79.994	19.996	102.944	19.986	3.588	0.305
60.500	116.369	79.994	19.996	102.946	19.989	3.415	0.275
61.000	116.515	79.994	19.996	102.947	19.987	3.547	0.230
61.500	116.680	79.994	19.996	102.947	19.988	3.493	0.271
62.000	116.824	79.994	19.995	102.946	19.988	3.457	0.310
62.500	116.987	79.993	19.996	102.951	19.988	3.503	0.308
63.000	117.103	79.994	19.996	102.955	19.985	3.706	0.293
63.500	117.259	79.993	19.997	102.956	19.983	3.796	0.275
64.000	117.424	79.992	19.996	102.962	19.987	3.573	0.296
64.500	117.555	79.994	19.997	102.964	19.984	3.725	0.309
65.000	117.706	79.994	19.995	102.963	19.986	3.587	0.289
65.500	117.856	79.994	19.996	102.963	19.982	3.862	0.292
66.000	118.033	79.993	19.996	102.965	19.986	3.640	0.314
66.500	118.171	79.993	19.996	102.965	19.990	3.355	0.321
67.000	118.332	79.993	19.996	102.971	19.983	3.805	0.307
67.500	118.465	79.993	19.996	102.973	19.983	3.803	0.297
68.000	118.652	79.994	19.996	102.974	19.984	3.769	0.308
68.500	118.812	79.994	19.996	102.975	19.983	3.830	0.334
69.000	119.009	79.993	19.996	102.977	19.982	3.864	0.352
69.500	119.163	79.994	19.996	102.977	19.982	3.881	0.354
70.000	119.312	79.994	19.996	102.977	19.983	3.824	0.327
70.500	119.464	79.994	19.996	102.978	19.982	3.898	0.302
71.000	119.638	79.994	19.996	102.979	19.981	3.940	0.314
71.500	119.822	79.993	19.996	102.980	19.982	3.908	0.342
72.000	119.976	79.994	19.996	102.981	19.983	3.832	0.348
72.500	120.144	79.993	19.996	102.981	19.984	3.765	0.330
73.000	120.301	79.994	19.996	102.979	19.983	3.845	0.323
73.500	120.500	79.995	19.996	102.979	19.981	3.959	0.340
74.000	120.652	79.992	19.997	102.978	19.982	3.902	0.353
74.500	120.858	79.995	19.996	102.977	19.982	3.894	0.355
75.000	121.003	79.995	19.996	102.977	19.981	3.950	0.354
75.500	121.211	79.994	19.997	102.978	19.981	3.946	0.352
76.000	121.429	79.993	19.996	102.982	19.980	4.028	0.390
76.500	121.552	79.993	19.997	102.983	19.982	3.858	0.384
77.000	121.738	79.993	19.996	102.983	19.981	3.946	0.325
77.500	121.910	79.993	19.995	102.983	19.979	4.113	0.334
78.000	122.155	79.993	19.995	102.982	19.980	4.010	0.387
78.500	122.305	79.994	19.994	102.977	19.980	4.022	0.406
79.000	122.531	79.993	19.997	102.976	19.981	3.963	0.385
79.500	122.682	79.994	19.996	102.975	19.977	4.233	0.377
80.000	122.878	79.994	19.996	102.975	19.976	4.330	0.362
80.500	123.100	79.994	19.996	102.975	19.978	4.165	0.382
81.000	123.294	79.994	19.996	102.976	19.977	4.235	0.417
81.500	123.462	79.994	19.995	102.978	19.977	4.247	0.389
82.000	123.666	79.994	19.996	102.979	19.978	4.142	0.367
82.500	123.864	79.993	19.996	102.979	19.977	4.262	0.388
83.000	124.054	79.994	19.996	102.980	19.978	4.176	0.395
83.500	124.243	79.991	19.996	102.980	19.977	4.231	0.383
84.000	124.420	79.993	19.996	102.978	19.977	4.237	0.372
84.500	124.595	79.992	19.997	102.978	19.979	4.113	0.359
85.001	124.781	79.993	19.997	102.977	19.978	4.178	0.357
85.501	124.994	79.993	19.997	102.976	19.980	4.007	0.380
86.000	125.212	79.993	19.996	102.976	19.975	4.405	0.415
86.500	125.417	79.991	19.997	102.976	19.975	4.392	0.427
87.000	125.623	79.993	19.996	102.978	19.978	4.203	0.417
87.500	125.787	79.992	19.997	102.979	19.980	4.059	0.391
88.000	126.021	79.991	19.997	102.979	19.978	4.144	0.384
88.500	126.223	79.992	19.996	102.979	19.975	4.376	0.417
89.000	126.418	79.993	19.996	102.979	19.974	4.468	0.417
89.501	126.648	79.993	19.996	102.979	19.974	4.454	0.411
90.001	126.829	79.992	19.996	102.979	19.973	4.500	0.418
90.500	127.051	79.994	19.996	102.979	19.978	4.161	0.407
91.000	127.256	79.992	19.997	102.983	19.975	4.382	0.415
91.500	127.478	79.991	19.996	102.985	19.975	4.346	0.427
92.000	127.657	79.994	19.996	102.985	19.977	4.222	0.414
92.500	127.890	79.993	19.996	102.986	19.977	4.224	0.407
93.000	128.108	79.992	19.996	102.986	19.975	4.355	0.431
93.501	128.299	79.995	19.996	102.983	19.974	4.444	0.430
94.001	128.526	79.993	19.996	102.983	19.972	4.602	0.414
94.500	128.724	79.993	19.996	102.983	19.971	4.636	0.422
95.001	128.943	79.994	19.996	102.982	19.972	4.597	0.421
95.501	129.133	79.994	19.995	102.982	19.972	4.568	0.413
96.000	129.396	79.996	19.995	102.984	19.972	4.603	0.431
96.500	129.574	79.994	19.995	102.988	19.973	4.502	0.447
97.000	129.803	79.997	19.995	102.994	19.971	4.669	0.424
97.500	130.019	79.995	19.994	102.997	19.973	4.488	0.426
98.000	130.261	79.996	19.995	103.001	19.973	4.538	0.451
98.500	130.467	79.995	19.995	102.999	19.974	4.425	0.453
99.000	130.699	79.994	19.996	102.995	19.971	4.625	0.443
99.500	130.930	79.994	19.996	102.993	19.973	4.540	0.450
100.000	131.153	79.995	19.995	102.996	19.976	4.291	0.459
100.500	131.371	79.996	19.995	102.996	19.972	4.618	0.448
101.000	131.611	79.994	19.995	102.996	19.970	4.700	0.449
101.500	131.808	79.996	19.994	102.996	19.972	4.594	0.447
102.000	132.074	79.995	19.994	102.994	19.969	4.797	0.450
102.500	132.285	79.995	19.995	102.990	19.970	4.700	0.470
103.001	132.529	79.994	19.994	102.989	19.969	4.770	0.466
103.501	132.714	79.994	19.995	102.988	19.971	4.675	0.442
104.000	132.943	79.994	19.996	102.987	19.973	4.534	0.421
104.500	133.188	79.994	19.994	102.986	19.969	4.800	0.444
105.001	133.430	79.994	19.995	102.984	19.968	4.876	0.481
105.501	133.683	79.994	19.995	102.985	19.970	4.693	0.491
106.000	133.937	79.994	19.995	102.989	19.970	4.749	0.501
106.500	134.141	79.995	19.995	102.994	19.970	4.737	0.483
107.000	134.380	79.994	19.994	102.998	19.969	4.766	0.450
107.500	134.603	79.994	19.994	103.001	19.971	4.654	0.452
108.000	134.829	79.994	19.997	102.998	19.967	4.904	0.456
108.500	135.111	79.995	19.994	102.995	19.967	4.939	0.479
109.000	135.278	79.995	19.996	102.991	19.968	4.857	0.479
109.500	135.503	79.994	19.994	102.988	19.969	4.764	0.420
110.000	135.763	79.995	19.995	102.985	19.970	4.752	0.438
110.500	135.996	79.995	19.995	102.988	19.970	4.754	0.488
111.000	136.248	79.993	19.994	102.994	19.969	4.815	0.489
111.500	136.502	79.993	19.995	102.994	19.969	4.819	0.496
112.000	136.726	79.993	19.995	103.001	19.971	4.657	0.492
112.500	136.988	79.994	19.997	103.006	19.970	4.737	0.482
113.000	137.211	79.994	19.994	103.005	19.970	4.699	0.486
113.500	137.466	79.994	19.995	103.000	19.971	4.673	0.482
114.000	137.741	79.995	19.995	102.998	19.969	4.815	0.504
114.500	137.957	79.994	19.994	102.990	19.971	4.670	0.510
115.000	138.179	79.995	19.994	102.986	19.968	4.897	0.464
115.500	138.439	79.995	19.995	102.985	19.973	4.526	0.460
116.000	138.696	79.994	19.994	102.984	19.971	4.623	0.499
116.500	138.900	79.996	19.995	102.986	19.968	4.843	0.489
117.000	139.165	79.994	19.995	102.988	19.969	4.807	0.465
117.500	139.433	79.996	19.994	102.988	19.969	4.783	0.501
118.000	139.697	79.994	19.995	102.986	19.967	4.923	0.533
118.500	139.918	79.996	19.994	102.987	19.965	5.049	0.509
119.000	140.169	79.995	19.994	102.985	19.965	5.056	0.479
119.500	140.410	79.997	19.996	102.983	19.968	4.862	0.482
120.000	140.675	79.995	19.995	102.981	19.966	5.014	0.499
120.500	140.901	79.996	19.995	102.984	19.966	5.007	0.499
121.000	141.165	79.996	19.995	102.983	19.966	5.032	0.490
121.500	141.419	79.997	19.995	102.982	19.968	4.857	0.504
122.000	141.638	79.997	19.994	102.981	19.968	4.895	0.496
122.500	141.882	79.997	19.995	102.981	19.966	5.003	0.469
123.000	142.164	79.997	19.995	102.981	19.964	5.146	0.495
123.500	142.406	79.996	19.995	102.984	19.966	5.030	0.525
124.000	142.682	79.996	19.994	102.985	19.963	5.220	0.521
124.500	142.956	79.995	19.995	102.985	19.967	4.942	0.534
125.000	143.194	79.997	19.995	102.985	19.965	5.052	0.531
125.500	143.466	79.996	19.995	102.982	19.968	4.876	0.511
126.000	143.704	79.997	19.995	102.978	19.966	5.001	0.510
126.500	143.944	79.996	19.994	102.976	19.966	5.028	0.494
127.000	144.209	79.995	19.996	102.977	19.965	5.083	0.492
127.500	144.451	79.995	19.996	102.978	19.967	4.959	0.506
128.000	144.701	79.996	19.996	102.979	19.966	5.018	0.499
128.500	145.007	79.996	19.995	102.979	19.967	4.965	0.524
129.000	145.240	79.995	19.994	102.979	19.967	4.957	0.547
129.500	145.471	79.994	19.996	102.980	19.966	4.982	0.502
130.000	145.728	79.995	19.996	102.979	19.966	4.995	0.477
130.500	146.000	79.995	19.996	102.978	19.966	5.037	0.509
131.000	146.243	79.992	19.995	102.978	19.967	4.940	0.522
131.500	146.502	79.994	19.994	102.978	19.964	5.113	0.508
132.000	146.723	79.995	19.994	102.978	19.964	5.149	0.491
132.500	146.935	79.994	19.994	102.978	19.964	5.123	0.457
133.000	147.244	79.994	19.996	102.979	19.965	5.087	0.477
133.500	147.500	79.994	19.996	102.980	19.962	5.302	0.543
134.000	147.761	79.994	19.995	102.980	19.962	5.286	0.541
134.500	148.011	79.994	19.994	102.980	19.964	5.136	0.514
135.000	148.240	79.993	19.996	102.979	19.964	5.149	0.495
135.500	148.518	79.995	19.995	102.977	19.964	5.130	0.493
136.000	148.756	79.994	19.996	102.976	19.965	5.090	0.511
136.500	149.013	79.992	19.996	102.975	19.961	5.358	0.505
137.000	149.274	79.993	19.995	102.974	19.967	4.947	0.507
137.500	149.567	79.994	19.996	102.973	19.959	5.523	0.537
138.000	149.822	79.991	19.995	102.975	19.962	5.310	0.551
138.500	150.044	79.993	19.996	102.975	19.960	5.423	0.513
139.000	150.270	79.994	19.996	102.973	19.961	5.375	0.462
139.500	150.574	79.994	19.996	102.971	19.959	5.480	0.489
140.000	150.847	79.993	19.996	102.971	19.958	5.575	0.554
140.500	151.106	79.994	19.996	102.968	19.959	5.470	0.555
141.000	151.379	79.994	19.995	102.968	19.962	5.304	0.532
141.500	151.592	79.994	19.996	102.971	19.957	5.598	0.509
142.000	151.844	79.994	19.996	102.971	19.957	5.600	0.476
142.500	152.113	79.994	19.996	102.970	19.961	5.349	0.493
143.000	152.375	79.993	19.996	102.974	19.955	5.751	0.526
143.500	152.649	79.993	19.996	102.973	19.959	5.494	0.533
144.000	152.843	79.994	19.996	102.973	19.957	5.652	0.502
144.500	153.151	79.995	19.996	102.976	19.957	5.635	0.485
145.000	153.385	79.994	19.996	102.974	19.956	5.705	0.522
145.500	153.643	79.994	19.996	102.973	19.956	5.673	0.517
146.000	153.893	79.993	19.996	102.971	19.955	5.792	0.500
146.500	154.143	79.993	19.996	102.966	19.953	5.933	0.504
147.000	154.380	79.993	19.995	102.958	19.955	5.779	0.494
147.500	154.639	79.996	19.996	102.957	19.956	5.679	0.491
148.000	154.855	79.995	19.996	102.956	19.954	5.814	0.485
148.500	155.138	79.993	19.995	102.959	19.957	5.624	0.487
149.000	155.411	79.994	19.995	102.963	19.954	5.844	0.528
149.500	155.670	79.994	19.995	102.968	19.954	5.837	0.544
150.000	155.881	79.995	19.996	102.968	19.951	6.025	0.501
150.500	156.155	79.994	19.996	102.966	19.955	5.784	0.477
151.000	156.424	79.994	19.997	102.961	19.951	6.048	0.514
151.500	156.622	79.995	19.996	102.954	19.953	5.907	0.505
152.000	156.908	79.995	19.996	102.951	19.952	5.951	0.476
152.500	157.137	79.994	19.996	102.947	19.952	6.007	0.499
153.000	157.403	79.994	19.996	102.946	19.949	6.182	0.505
153.500	157.657	79.995	19.995	102.946	19.953	5.874	0.508
154.000	157.862	79.995	19.995	102.949	19.950	6.129	0.489
154.500	158.149	79.996	19.996	102.951	19.949	6.171	0.475
155.000	158.408	79.995	19.995	102.951	19.948	6.251	0.519
155.500	158.652	79.993	19.996	102.951	19.947	6.344	0.525
156.000	158.896	79.994	19.995	102.950	19.948	6.255	0.496
156.500	159.169	79.994	19.995	102.947	19.943	6.634	0.502
157.000	159.398	79.994	19.996	102.945	19.946	6.376	0.509
157.500	159.664	79.994	19.995	102.947	19.948	6.270	0.499
158.000	159.899	79.993	19.996	102.948	19.944	6.560	0.499
158.500	160.177	79.995	19.995	102.953	19.947	6.307	0.507
159.000	160.426	79.993	19.995	102.955	19.947	6.355	0.520
159.500	160.670	79.993	19.996	102.955	19.943	6.589	0.510
160.000	160.900	79.995	19.996	102.955	19.943	6.597	0.484
160.500	161.165	79.993	19.995	102.957	19.946	6.387	0.484
161.000	161.370	79.994	19.996	102.959	19.943	6.618	0.482
161.500	161.669	79.994	19.996	102.961	19.946	6.409	0.487
162.000	161.899	79.994	19.996	102.962	19.945	6.460	0.517
162.500	162.204	79.993	19.996	102.960	19.946	6.405	0.531
163.000	162.402	79.992	19.996	102.956	19.945	6.466	0.519
163.500	162.620	79.994	19.995	102.948	19.943	6.572	0.459
164.000	162.926	79.992	19.996	102.944	19.946	6.366	0.470
164.500	163.121	79.992	19.996	102.942	19.943	6.611	0.512
165.000	163.450	79.992	19.996	102.943	19.942	6.703	0.513
165.500	163.658	79.993	19.997	102.951	19.941	6.718	0.531
166.000	163.901	79.993	19.996	102.958	19.938	6.977	0.494
166.500	164.175	79.994	19.996	102.960	19.940	6.813	0.483
167.000	164.455	79.992	19.996	102.962	19.944	6.517	0.535
167.500	164.661	79.993	19.996	102.961	19.940	6.807	0.520
168.000	164.908	79.994	19.995	102.955	19.941	6.726	0.470
168.500	165.200	79.993	19.996	102.948	19.940	6.845	0.496
169.000	165.412	79.994	19.996	102.947	19.939	6.914	0.522
169.500	165.672	79.994	19.997	102.946	19.941	6.762	0.488
170.000	165.929	79.993	19.996	102.949	19.940	6.792	0.495
170.500	166.127	79.993	19.996	102.948	19.938	6.971	0.486
171.000	166.445	79.994	19.997	102.948	19.938	6.919	0.485
171.500	166.698	79.993	19.996	102.948	19.938	6.976	0.543
172.000	166.970	79.995	19.997	102.950	19.935	7.178	0.548
172.500	167.242	79.995	19.997	102.952	19.940	6.820	0.535
173.000	167.453	79.995	19.996	102.952	19.939	6.912	0.514
173.500	167.709	79.994	19.997	102.952	19.937	7.045	0.475
174.000	167.992	79.994	19.996	102.951	19.940	6.809	0.503
174.500	168.202	79.994	19.996	102.948	19.941	6.734	0.516
175.000	168.441	79.996	19.996	102.942	19.941	6.738	0.471
175.500	168.701	79.993	19.996	102.942	19.936	7.095	0.474
176.000	168.915	79.993	19.996	102.941	19.935	7.177	0.486
176.500	169.190	79.995	19.997	102.942	19.934	7.265	0.481
177.000	169.421	79.994	19.996	102.945	19.935	7.185	0.497
177.500	169.723	79.994	19.996	102.945	19.933	7.288	0.519
178.000	169.976	79.995	19.996	102.945	19.934	7.221	0.544
178.500	170.215	79.994	19.997	102.945	19.936	7.069	0.524
179.000	170.461	79.995	19.996	102.944	19.939	6.870	0.489
179.500	170.609	79.995	19.996	102.942	19.937	7.005	0.439
180.000	170.911	79.995	19.996	102.943	19.939	6.891	0.422
180.500	171.161	79.996	19.996	102.942	19.937	7.041	0.501
181.000	171.408	79.996	19.996	102.942	19.938	6.940	0.525
181.500	171.649	79.994	19.996	102.942	19.937	7.003	0.493
182.000	171.958	79.996	19.996	102.941	19.934	7.237	0.519
182.500	172.186	79.995	19.996	102.940	19.937	7.039	0.543
183.000	172.399	79.994	19.996	102.940	19.937	7.050	0.489
183.500	172.647	79.994	19.996	102.939	19.936	7.060	0.451
184.000	172.909	79.994	19.996	102.938	19.937	7.039	0.485
184.500	173.150	79.995	19.996	102.939	19.935	7.154	0.506
185.000	173.408	79.995	19.997	102.937	19.937	7.006	0.501
185.500	173.640	79.995	19.996	102.934	19.936	7.078	0.495
186.000	173.925	79.996	19.997	102.932	19.935	7.177	0.503
186.500	174.163	79.996	19.996	102.932	19.936	7.084	0.520
187.000	174.414	79.995	19.997	102.931	19.937	7.031	0.506
187.500	174.687	79.995	19.997	102.933	19.934	7.231	0.507
188.000	174.947	79.995	19.996	102.936	19.935	7.183	0.529
188.500	175.165	79.996	19.996	102.937	19.937	7.050	0.505
189.000	175.418	79.995	19.996	102.938	19.937	7.035	0.474
189.500	175.634	79.995	19.996	102.937	19.933	7.292	0.470
190.000	175.893	79.996	19.995	102.937	19.936	7.077	0.472
190.500	176.126	79.994	19.996	102.937	19.939	6.889	0.484
191.000	176.370	79.995	19.995	102.938	19.938	6.948	0.484
191.500	176.609	79.996	19.995	102.938	19.937	7.046	0.480
192.000	176.881	79.993	19.995	102.938	19.938	6.976	0.497
192.500	177.113	79.995	19.994	102.938	19.938	6.959	0.508
193.000	177.365	79.995	19.996	102.939	19.940	6.790	0.494
193.500	177.628	79.994	19.996	102.939	19.942	6.689	0.499
194.000	177.883	79.995	19.995	102.937	19.938	6.968	0.516
194.500	178.111	79.996	19.996	102.935	19.942	6.653	0.501
195.000	178.383	79.996	19.995	102.933	19.941	6.716	0.492
195.500	178.628	79.998	19.995	102.932	19.941	6.710	0.508
196.000	178.859	79.996	19.995	102.931	19.942	6.674	0.496
196.500	179.098	79.995	19.995	102.933	19.939	6.894	0.473
197.000	179.343	79.997	19.995	102.935	19.936	7.078	0.477
197.500	179.590	79.996	19.995	102.936	19.937	7.052	0.488
198.000	179.854	79.998	19.995	102.935	19.938	6.980	0.502
198.500	180.086	79.996	19.995	102.937	19.941	6.761	0.504
199.000	180.311	79.996	19.995	102.936	19.938	6.938	0.476
199.500	180.575	79.996	19.995	102.936	19.938	6.965	0.473
200.000	180.830	79.997	19.995	102.936	19.937	7.048	0.504
200.500	181.067	79.997	19.995	102.938	19.937	7.056	0.506
201.000	181.333	79.996	19.995	102.937	19.940	6.830	0.498
201.500	181.578	79.996	19.995	102.937	19.936	7.067	0.507
202.000	181.797	79.997	19.995	102.938	19.937	7.058	0.487
202.500	182.061	79.997	19.995	102.938	19.937	7.054	0.473
203.000	182.277	79.996	19.995	102.937	19.936	7.111	0.482
203.500	182.537	79.996	19.995	102.938	19.937	7.054	0.478
204.000	182.789	79.997	19.995	102.938	19.941	6.740	0.494
204.500	183.051	79.997	19.994	102.937	19.940	6.784	0.513
205.000	183.291	79.996	19.994	102.937	19.939	6.866	0.508
205.500	183.515	79.996	19.996	102.937	19.938	6.966	0.483
206.000	183.748	79.996	19.994	102.937	19.937	6.997	0.460
206.500	184.016	79.996	19.995	102.936	19.937	7.020	0.479
207.000	184.253	79.997	19.994	102.935	19.941	6.767	0.503
207.500	184.531	79.996	19.995	102.935	19.938	6.974	0.509
208.000	184.785	79.997	19.995	102.933	19.935	7.128	0.523
208.500	185.025	79.995	19.995	102.934	19.939	6.858	0.513
209.000	185.307	79.996	19.995	102.934	19.938	6.921	0.508
209.500	185.538	79.994	19.995	102.935	19.937	7.058	0.518
210.000	185.777	79.995	19.996	102.936	19.941	6.760	0.492
210.500	186.040	79.993	19.995	102.937	19.937	7.047	0.486
211.000	186.268	79.995	19.996	102.937	19.939	6.877	0.497
211.500	186.530	79.994	19.996	102.938	19.939	6.891	0.491
212.000	186.790	79.995	19.994	102.938	19.940	6.809	0.506
212.500	187.051	79.995	19.995	102.939	19.935	7.128	0.521
213.000	187.282	79.993	19.995	102.939	19.936	7.096	0.507
213.500	187.541	79.995	19.995	102.938	19.943	6.590	0.491
214.000	187.824	79.993	19.995	102.938	19.940	6.820	0.516
214.500	188.027	79.994	19.995	102.939	19.941	6.716	0.513
215.000	188.286	79.995	19.996	102.939	19.940	6.822	0.474
215.500	188.515	79.995	19.994	102.939	19.941	6.765	0.475
216.000	188.786	79.994	19.994	102.938	19.939	6.898	0.494
216.500	189.019	79.993	19.996	102.936	19.940	6.790	0.502
217.000	189.263	79.994	19.994	102.936	19.938	6.948	0.490
217.500	189.502	79.995	19.995	102.936	19.938	6.969	0.480
218.000	189.762	79.994	19.995	102.936	19.940	6.836	0.492
218.500	189.992	79.995	19.995	102.939	19.944	6.547	0.494
219.000	190.239	79.994	19.995	102.940	19.940	6.849	0.483
219.500	190.486	79.994	19.995	102.941	19.940	6.841	0.486
220.000	190.774	79.995	19.995	102.940	19.940	6.820	0.515
220.500	190.993	79.995	19.995	102.940	19.945	6.488	0.521
221.000	191.264	79.995	19.995	102.940	19.944	6.516	0.499
221.500	191.470	79.994	19.995	102.941	19.943	6.638	0.484
222.000	191.716	79.995	19.996	102.940	19.941	6.720	0.464
222.500	191.997	79.995	19.994	102.940	19.945	6.497	0.489
223.000	192.222	79.995	19.995	102.941	19.941	6.761	0.516
223.500	192.481	79.993	19.996	102.941	19.941	6.737	0.495
224.000	192.748	79.994	19.995	102.940	19.942	6.668	0.505
224.500	193.001	79.994	19.994	102.938	19.943	6.630	0.523
225.000	193.223	79.993	19.995	102.938	19.941	6.738	0.498
225.500	193.501	79.995	19.994	102.938	19.942	6.685	0.488
226.000	193.735	79.993	19.995	102.938	19.944	6.552	0.506
226.500	193.964	79.995	19.995	102.938	19.943	6.600	0.488
227.000	194.215	79.994	19.996	102.939	19.943	6.603	0.472
227.500	194.480	79.994	19.995	102.940	19.945	6.498	0.498
228.000	194.747	79.993	19.995	102.940	19.943	6.578	0.524
228.500	195.000	79.994	19.994	102.939	19.941	6.749	0.526
229.000	195.281	79.994	19.995	102.940	19.943	6.592	0.527
229.500	195.495	79.994	19.995	102.940	19.942	6.650	0.514
230.000	195.735	79.995	19.995	102.940	19.943	6.623	0.475
230.500	195.994	79.993	19.995	102.939	19.946	6.376	0.477
231.000	196.213	79.993	19.995	102.939	19.944	6.551	0.489
231.500	196.470	79.994	19.995	102.938	19.944	6.515	0.477
232.000	196.761	79.995	19.995	102.940	19.943	6.624	0.512
232.500	196.929	79.994	19.995	102.940	19.946	6.414	0.503
233.000	197.216	79.993	19.995	102.940	19.942	6.663	0.457
233.500	197.441	79.994	19.995	102.940	19.943	6.629	0.483
234.000	197.739	79.994	19.995	102.940	19.944	6.499	0.517
234.500	197.975	79.995	19.995	102.939	19.946	6.429	0.529
235.000	198.253	79.993	19.995	102.939	19.948	6.275	0.524
235.500	198.472	79.992	19.996	102.939	19.948	6.247	0.506
236.000	198.711	79.993	19.996	102.937	19.944	6.553	0.478
236.500	198.988	79.993	19.996	102.936	19.946	6.403	0.487
237.000	199.200	79.994	19.995	102.936	19.945	6.494	0.503
237.500	199.490	79.991	19.995	102.935	19.945	6.460	0.495
238.000	199.721	79.993	19.995	102.930	19.946	6.368	0.511
238.500	199.976	79.994	19.995	102.924	19.945	6.446	0.503
239.000	200.197	79.992	19.995	102.923	19.942	6.649	0.481
239.500	200.450	79.994	19.996	102.919	19.944	6.534	0.475
240.000	200.722	79.993	19.996	102.913	19.946	6.404	0.500
240.500	200.941	79.993	19.995	102.915	19.945	6.473	0.508
241.000	201.199	79.993	19.995	102.920	19.945	6.462	0.484
241.500	201.466	79.994	19.996	102.919	19.943	6.597	0.501
242.000	201.701	79.992	19.996	102.921	19.948	6.266	0.514
242.500	201.950	79.993	19.996	102.925	19.947	6.308	0.493
243.000	202.203	79.994	19.995	102.925	19.947	6.341	0.493
243.500	202.458	79.993	19.995	102.923	19.945	6.447	0.504
244.000	202.714	79.994	19.995	102.919	19.945	6.445	0.509
244.500	202.951	79.993	19.996	102.914	19.947	6.305	0.502
245.000	203.194	79.993	19.995	102.912	19.948	6.240	0.487
245.500	203.464	79.993	19.996	102.915	19.948	6.286	0.497
246.000	203.689	79.995	19.996	102.919	19.945	6.468	0.504
246.500	203.947	79.993	19.996	102.920	19.948	6.253	0.488
247.000	204.178	79.993	19.996	102.924	19.948	6.252	0.486
247.500	204.471	79.993	19.996	102.924	19.950	6.117	0.507
248.000	204.661	79.993	19.996	102.920	19.949	6.172	0.504
248.500	204.952	79.994	19.996	102.915	19.948	6.247	0.482
249.000	205.212	79.993	19.995	102.915	19.949	6.184	0.516
249.500	205.451	79.995	19.996	102.914	19.948	6.277	0.525
250.000	205.698	79.996	19.995	102.914	19.947	6.323	0.492
250.500	205.925	79.995	19.996	102.916	19.947	6.290	0.480
251.000	206.203	79.995	19.996	102.916	19.950	6.092	0.489
251.500	206.459	79.995	19.996	102.919	19.948	6.273	0.519
252.000	206.711	79.995	19.995	102.920	19.947	6.321	0.521
252.500	206.941	79.995	19.995	102.922	19.949	6.205	0.495
253.000	207.178	79.994	19.996	102.925	19.950	6.148	0.475
253.500	207.434	79.996	19.995	102.929	19.949	6.190	0.480
254.000	207.726	79.995	19.997	102.928	19.950	6.131	0.520
254.500	207.940	79.995	19.996	102.929	19.952	5.959	0.527
255.000	208.204	79.996	19.996	102.932	19.950	6.088	0.492
255.500	208.442	79.995	19.996	102.932	19.950	6.149	0.490
256.000	208.696	79.996	19.995	102.931	19.950	6.084	0.497
256.500	208.946	79.995	19.996	102.932	19.952	5.966	0.498
257.000	209.169	79.995	19.996	102.929	19.950	6.111	0.489
257.500	209.426	79.995	19.995	102.923	19.949	6.178	0.477
258.000	209.695	79.995	19.995	102.917	19.952	5.975	0.504
258.500	209.937	79.995	19.996	102.909	19.950	6.100	0.518
259.000	210.171	79.996	19.996	102.909	19.951	6.035	0.493
259.500	210.401	79.996	19.998	102.912	19.952	5.999	0.470
260.000	210.687	79.994	19.995	102.915	19.949	6.159	0.491
260.500	210.946	79.996	19.997	102.917	19.952	5.961	0.531
261.000	211.167	79.995	19.996	102.918	19.952	5.942	0.512
261.500	211.422	79.995	19.997	102.915	19.951	6.053	0.478
262.000	211.653	79.995	19.995	102.911	19.951	6.030	0.481
262.500	211.920	79.993	19.996	102.911	19.952	6.011	0.492
263.000	212.166	79.994	19.997	102.914	19.953	5.914	0.505
263.500	212.415	79.994	19.997	102.918	19.951	6.043	0.503
264.000	212.678	79.995	19.996	102.922	19.951	6.056	0.503
264.500	212.903	79.993	19.996	102.921	19.954	5.845	0.500
265.000	213.160	79.994	19.997	102.916	19.953	5.877	0.485
265.500	213.423	79.993	19.996	102.910	19.953	5.879	0.501
266.000	213.663	79.995	19.996	102.905	19.952	5.944	0.512
266.500	213.905	79.994	19.997	102.899	19.953	5.919	0.493
267.000	214.153	79.993	19.997	102.899	19.953	5.925	0.486
267.500	214.402	79.995	19.996	102.900	19.954	5.863	0.493
268.000	214.655	79.995	19.996	102.903	19.953	5.878	0.499
268.500	214.912	79.993	19.996	102.907	19.954	5.823	0.506
269.000	215.154	79.994	19.996	102.909	19.956	5.714	0.505
269.500	215.404	79.994	19.996	102.908	19.956	5.726	0.496
270.000	215.661	79.993	19.995	102.907	19.952	5.963	0.499
270.500	215.892	79.994	19.996	102.906	19.953	5.906	0.498
271.000	216.138	79.994	19.995	102.903	19.958	5.568	0.483
271.500	216.393	79.994	19.996	102.907	19.955	5.758	0.489
272.000	216.664	79.994	19.996	102.911	19.956	5.708	0.513
272.500	216.875	79.994	19.995	102.917	19.953	5.898	0.504
273.000	217.155	79.996	19.996	102.919	19.957	5.613	0.486
273.500	217.428	79.995	19.996	102.922	19.958	5.588	0.522
274.000	217.654	79.994	19.995	102.918	19.959	5.463	0.527
274.500	217.900	79.996	19.995	102.913	19.959	5.473	0.486
275.000	218.134	79.997	19.996	102.907	19.959	5.518	0.476
275.500	218.387	79.996	19.995	102.905	19.957	5.613	0.484
276.000	218.649	79.995	19.996	102.903	19.958	5.552	0.501
276.500	218.898	79.997	19.996	102.903	19.959	5.492	0.513
277.000	219.162	79.996	19.995	102.904	19.958	5.564	0.512
277.500	219.346	79.996	19.996	102.906	19.957	5.642	0.480
278.000	219.628	79.996	19.995	102.908	19.958	5.568	0.457
278.500	219.899	79.996	19.995	102.911	19.960	5.397	0.509
279.000	220.167	79.996	19.995	102.912	19.959	5.518	0.546
279.500	220.394	79.996	19.995	102.911	19.960	5.425	0.518
280.000	220.610	79.996	19.995	102.909	19.960	5.421	0.469
280.500	220.866	79.996	19.995	102.909	19.956	5.678	0.457
281.000	221.122	79.996	19.994	102.906	19.953	5.883	0.492
281.500	221.405	79.996	19.995	102.907	19.957	5.611	0.525
282.000	221.633	79.996	19.995	102.909	19.961	5.379	0.525
282.500	221.875	79.997	19.994	102.910	19.958	5.575	0.490
283.000	222.127	79.994	19.995	102.908	19.960	5.387	0.482
283.500	222.382	79.996	19.995	102.906	19.959	5.455	0.501
284.000	222.666	79.995	19.996	102.903	19.960	5.397	0.523
284.500	222.869	79.995	19.995	102.902	19.960	5.429	0.513
285.000	223.129	79.995	19.995	102.901	19.958	5.592	0.475
285.500	223.429	79.995	19.994	102.902	19.961	5.357	0.511
286.000	223.624	79.995	19.994	102.903	19.962	5.279	0.528
286.500	223.855	79.995	19.995	102.903	19.961	5.370	0.460
287.000	224.150	79.995	19.995	102.902	19.962	5.309	0.476
287.500	224.372	79.995	19.995	102.903	19.964	5.134	0.522
288.000	224.642	79.994	19.995	102.904	19.964	5.174	0.505
288.500	224.881	79.994	19.995	102.907	19.963	5.229	0.500
289.000	225.125	79.995	19.995	102.908	19.961	5.328	0.496
289.500	225.392	79.994	19.995	102.909	19.964	5.144	0.497
290.000	225.613	79.994	19.996	102.908	19.965	5.040	0.500
290.500	225.876	79.995	19.994	102.907	19.966	4.986	0.486
291.000	226.103	79.993	19.995	102.905	19.966	5.005	0.487
291.500	226.356	79.993	19.996	102.903	19.965	5.062	0.484
292.000	226.594	79.994	19.995	102.902	19.962	5.279	0.485
292.500	226.891	79.993	19.996	102.903	19.963	5.180	0.513
293.000	227.111	79.994	19.995	102.902	19.965	5.104	0.526
293.500	227.347	79.995	19.995	102.901	19.966	5.017	0.486
294.000	227.601	79.992	19.995	102.902	19.964	5.140	0.473
294.500	227.838	79.994	19.995	102.902	19.962	5.284	0.491
295.000	228.090	79.993	19.995	102.902	19.966	5.030	0.491
295.500	228.357	79.993	19.995	102.902	19.963	5.245	0.504
296.000	228.590	79.993	19.995	102.902	19.966	4.992	0.509
296.500	228.861	79.993	19.995	102.903	19.963	5.239	0.502
297.000	229.114	79.993	19.995	102.905	19.963	5.222	0.514
297.500	229.375	79.993	19.996	102.906	19.964	5.159	0.519
298.000	229.636	79.995	19.995	102.906	19.963	5.205	0.518
298.500	229.898	79.994	19.995	102.906	19.962	5.275	0.523
299.000	230.174	79.993	19.995	102.904	19.963	5.229	0.531
299.500	230.435	79.993	19.996	102.903	19.965	5.104	0.538
300.000	230.658	79.995	19.994	102.903	19.965	5.064	0.510
300.500	230.898	79.993	19.995	102.905	19.963	5.191	0.473
301.000	231.182	79.993	19.995	102.907	19.961	5.366	0.494
301.500	231.430	79.994	19.995	102.907	19.962	5.281	0.528
302.000	231.674	79.994	19.996	102.906	19.963	5.222	0.512
302.500	231.911	79.993	19.995	102.906	19.961	5.341	0.486
303.000	232.123	79.993	19.996	102.903	19.962	5.252	0.465
303.500	232.374	79.994	19.995	102.902	19.964	5.151	0.456
304.000	232.663	79.996	19.995	102.902	19.958	5.556	0.502
304.500	232.917	79.994	19.994	102.903	19.959	5.476	0.542
305.000	233.134	79.994	19.995	102.903	19.959	5.465	0.507
305.500	233.407	79.995	19.994	102.903	19.962	5.288	0.481
306.000	233.637	79.993	19.994	102.903	19.957	5.662	0.497
306.500	233.910	79.995	19.995	102.904	19.961	5.370	0.503
307.000	234.177	79.995	19.994	102.904	19.960	5.415	0.522
307.500	234.415	79.994	19.995	102.904	19.962	5.294	0.523
308.000	234.619	79.994	19.995	102.904	19.962	5.263	0.474
308.500	234.890	79.995	19.995	102.904	19.961	5.379	0.459
309.000	235.148	79.995	19.995	102.902	19.961	5.355	0.502
309.500	235.370	79.994	19.995	102.902	19.963	5.237	0.504
310.000	235.642	79.994	19.995	102.902	19.958	5.550	0.487
310.500	235.883	79.995	19.995	102.902	19.960	5.415	0.504
311.000	236.097	79.994	19.996	102.901	19.962	5.284	0.484
311.500	236.367	79.995	19.994	102.901	19.962	5.288	0.470
312.000	236.593	79.993	19.995	102.901	19.956	5.668	0.490
312.500	236.839	79.995	19.994	102.901	19.959	5.522	0.484
313.000	237.102	79.996	19.995	102.900	19.958	5.543	0.491
313.500	237.342	79.994	19.997	102.901	19.959	5.510	0.506
314.000	237.607	79.995	19.995	102.901	19.958	5.533	0.504
314.500	237.828	79.996	19.996	102.900	19.955	5.773	0.495
315.000	238.077	79.994	19.995	102.900	19.956	5.698	0.478
315.500	238.338	79.994	19.995	102.900	19.957	5.640	0.490
316.000	238.545	79.995	19.994	102.900	19.959	5.474	0.489
316.500	238.830	79.996	19.995	102.899	19.961	5.358	0.480
317.000	239.078	79.996	19.995	102.899	19.960	5.391	0.513
317.500	239.313	79.994	19.995	102.898	19.954	5.820	0.508
318.000	239.545	79.994	19.996	102.898	19.956	5.723	0.475
318.500	239.813	79.994	19.996	102.898	19.955	5.746	0.484
319.000	240.026	79.994	19.996	102.899	19.953	5.877	0.491
319.500	240.304	79.995	19.995	102.898	19.954	5.812	0.486
320.000	240.557	79.995	19.996	102.899	19.954	5.869	0.511
320.500	240.790	79.994	19.996	102.899	19.955	5.778	0.508
321.000	241.031	79.993	19.996	102.899	19.953	5.928	0.480
321.500	241.288	79.992	19.996	102.899	19.952	5.991	0.486
322.000	241.552	79.994	19.996	102.899	19.951	6.060	0.510
322.500	241.820	79.993	19.997	102.898	19.950	6.084	0.526
323.000	242.071	79.993	19.997	102.898	19.951	6.022	0.525
323.500	242.305	79.992	19.996	102.896	19.953	5.892	0.502
324.000	242.547	79.993	19.997	102.896	19.947	6.301	0.480
324.500	242.816	79.994	19.996	102.897	19.946	6.417	0.493
325.000	243.069	79.993	19.996	102.898	19.949	6.198	0.517
325.500	243.309	79.994	19.995	102.898	19.944	6.540	0.508
326.000	243.570	79.994	19.996	102.899	19.944	6.559	0.497
326.500	243.787	79.993	19.996	102.898	19.945	6.472	0.489
327.000	244.078	79.994	19.997	102.897	19.946	6.423	0.493
327.500	244.301	79.994	19.996	102.897	19.945	6.474	0.511
328.000	244.528	79.995	19.996	102.897	19.942	6.645	0.482
328.500	244.778	79.994	19.997	102.896	19.943	6.605	0.464
329.000	245.055	79.992	19.996	102.897	19.943	6.590	0.502
329.500	245.273	79.994	19.995	102.898	19.941	6.723	0.511
330.000	245.588	79.995	19.997	102.898	19.941	6.727	0.514
330.500	245.833	79.996	19.996	102.898	19.935	7.131	0.547
331.000	246.055	79.995	19.997	102.898	19.936	7.122	0.513
331.500	246.278	79.994	19.997	102.898	19.935	7.164	0.456
332.000	246.585	79.994	19.996	102.901	19.936	7.098	0.488
332.500	246.790	79.996	19.996	102.901	19.933	7.297	0.521
333.000	247.008	79.996	19.996	102.901	19.931	7.472	0.467
333.500	247.269	79.997	19.995	102.901	19.931	7.457	0.451
334.000	247.539	79.997	19.995	102.901	19.928	7.629	0.505
334.500	247.779	79.994	19.995	102.897	19.930	7.485	0.521
335.000	248.006	79.995	19.994	102.897	19.925	7.836	0.489
335.500	248.248	79.995	19.996	102.897	19.923	8.013	0.468
336.000	248.486	79.995	19.995	102.897	19.921	8.144	0.474
336.500	248.771	79.997	19.995	102.898	19.925	7.838	0.502
337.000	249.019	79.996	19.996	102.900	19.920	8.239	0.528
337.500	249.307	79.995	19.996	102.901	19.918	8.365	0.534
338.000	249.506	79.994	19.996	102.904	19.916	8.450	0.511
338.500	249.787	79.994	19.995	102.906	19.917	8.399	0.484
339.000	250.049	79.995	19.996	102.907	19.916	8.484	0.511
339.500	250.307	79.993	19.995	102.905	19.911	8.806	0.531
340.000	250.567	79.995	19.996	102.905	19.908	9.007	0.519
340.500	250.809	79.994	19.995	102.902	19.911	8.857	0.510
341.000	251.044	79.994	19.996	102.901	19.908	9.074	0.490
341.500	251.327	79.995	19.997	102.900	19.906	9.177	0.498
342.000	251.561	79.995	19.995	102.902	19.904	9.354	0.517
342.500	251.846	79.994	19.995	102.906	19.903	9.401	0.518
343.000	252.069	79.996	19.995	102.908	19.902	9.471	0.514
343.500	252.298	79.995	19.995	102.907	19.899	9.670	0.480
344.000	252.540	79.994	19.996	102.908	19.899	9.636	0.461
344.500	252.785	79.994	19.996	102.907	19.893	10.081	0.479
345.000	253.009	79.993	19.995	102.904	19.893	10.091	0.478
345.500	253.274	79.994	19.996	102.902	19.891	10.237	0.479
346.000	253.533	79.995	19.996	102.902	19.888	10.434	0.507
346.500	253.774	79.994	19.995	102.901	19.887	10.525	0.512
347.000	254.049	79.994	19.996	102.900	19.885	10.625	0.508
347.500	254.289	79.994	19.995	102.901	19.883	10.796	0.516
348.000	254.536	79.995	19.995	102.901	19.881	10.936	0.501
348.500	254.774	79.995	19.996	102.902	19.880	11.014	0.485
349.000	255.022	79.994	19.997	102.904	19.877	11.175	0.485
349.500	255.285	79.994	19.996	102.903	19.870	11.673	0.499
350.000	255.548	79.993	19.996	102.903	19.874	11.411	0.518
350.500	255.765	79.994	19.996	102.903	19.869	11.741	0.503
351.000	255.997	79.993	19.995	102.902	19.866	11.992	0.465
351.500	256.284	79.995	19.997	102.907	19.865	12.065	0.484
352.000	256.496	79.995	19.997	102.912	19.860	12.356	0.509
352.500	256.783	79.996	19.996	102.915	19.862	12.238	0.499
353.000	256.966	79.992	19.996	102.915	19.858	12.542	0.485
353.500	257.236	79.994	19.997	102.915	19.857	12.597	0.462
354.000	257.480	79.995	19.997	102.909	19.856	12.684	0.484
354.500	257.763	79.995	19.996	102.905	19.849	13.148	0.520
355.000	257.989	79.995	19.996	102.904	19.850	13.093	0.518
355.500	258.267	79.994	19.996	102.907	19.844	13.504	0.506
356.000	258.521	79.996	19.996	102.909	19.844	13.498	0.519
356.500	258.736	79.994	19.996	102.913	19.840	13.765	0.501
357.000	259.019	79.996	19.996	102.918	19.837	13.994	0.483
357.500	259.272	79.995	19.996	102.915	19.835	14.158	0.517
358.000	259.526	79.995	19.996	102.915	19.835	14.109	0.522
358.500	259.755	79.995	19.996	102.913	19.831	14.379	0.495
359.000	259.982	79.995	19.996	102.909	19.826	14.735	0.469
359.500	260.245	79.995	19.996	102.906	19.823	14.935	0.473
360.000	260.512	79.995	19.995	102.906	19.823	14.984	0.511
360.500	260.749	79.997	19.995	102.904	19.818	15.311	0.518
361.000	261.008	79.996	19.995	102.909	19.813	15.686	0.500
361.500	261.227	79.995	19.996	102.914	19.812	15.725	0.487
362.000	261.514	79.995	19.996	102.918	19.806	16.115	0.492
362.500	261.719	79.996	19.995	102.922	19.805	16.236	0.499
363.000	261.969	79.995	19.995	102.922	19.804	16.307	0.474
363.500	262.220	79.996	19.996	102.921	19.803	16.388	0.478
364.000	262.503	79.995	19.995	102.921	19.797	16.769	0.517
364.500	262.700	79.994	19.995	102.919	19.792	17.090	0.507
365.000	262.977	79.996	19.995	102.921	19.792	17.147	0.477
365.500	263.193	79.994	19.994	102.925	19.786	17.569	0.483
366.000	263.474	79.994	19.995	102.926	19.785	17.600	0.495
366.500	263.744	79.994	19.995	102.925	19.779	18.016	0.524
367.000	263.968	79.993	19.995	102.921	19.776	18.221	0.523
367.500	264.231	79.993	19.995	102.919	19.772	18.523	0.491
368.000	264.484	79.992	19.994	102.923	19.772	18.506	0.501
368.500	264.727	79.993	19.994	102.925	19.770	18.687	0.506
369.000	264.970	79.993	19.995	102.928	19.764	19.071	0.491
369.500	265.209	79.994	19.995	102.934	19.761	19.249	0.484
370.000	265.503	79.993	19.995	102.935	19.755	19.734	0.508
370.500	265.688	79.994	19.995	102.935	19.750	20.073	0.506
371.000	265.959	79.993	19.996	102.935	19.748	20.191	0.468
371.500	266.204	79.994	19.996	102.935	19.748	20.190	0.486
372.000	266.459	79.995	19.995	102.936	19.739	20.802	0.508
372.500	266.720	79.993	19.996	102.936	19.734	21.186	0.508
373.000	266.975	79.993	19.995	102.935	19.735	21.060	0.516
373.500	267.238	79.994	19.996	102.934	19.731	21.360	0.517
374.000	267.494	79.994	19.996	102.934	19.726	21.702	0.518
374.500	267.685	79.994	19.994	102.934	19.726	21.715	0.483
375.000	267.964	79.994	19.996	102.935	19.718	22.295	0.459
375.500	268.234	79.993	19.997	102.936	19.714	22.549	0.510
376.000	268.475	79.994	19.995	102.936	19.712	22.696	0.530
376.500	268.721	79.994	19.995	102.936	19.708	23.009	0.499
377.000	268.973	79.993	19.995	102.936	19.708	22.981	0.492
377.500	269.211	79.993	19.996	102.937	19.702	23.407	0.494
378.000	269.464	79.993	19.997	102.937	19.698	23.660	0.490
378.500	269.723	79.994	19.996	102.935	19.697	23.741	0.501
379.000	269.970	79.992	19.995	102.935	19.690	24.203	0.509
379.500	270.239	79.994	19.996	102.935	19.683	24.749	0.511
380.000	270.500	79.994	19.997	102.936	19.682	24.804	0.523
380.500	270.724	79.993	19.995	102.936	19.675	25.254	0.508
381.000	270.998	79.993	19.996	102.937	19.672	25.473	0.492
381.500	271.272	79.993	19.995	102.938	19.667	25.802	0.523
382.000	271.529	79.993	19.995	102.938	19.665	25.960	0.540
382.500	271.806	79.993	19.995	102.933	19.661	26.260	0.532
383.000	272.053	79.995	19.994	102.933	19.657	26.559	0.529
383.500	272.278	79.993	19.994	102.933	19.652	26.895	0.498
384.000	272.558	79.994	19.995	102.933	19.647	27.222	0.489
384.500	272.738	79.993	19.995	102.932	19.648	27.177	0.482
385.000	273.016	79.994	19.997	102.937	19.637	27.935	0.458
385.500	273.283	79.994	19.995	102.937	19.633	28.201	0.501
386.000	273.541	79.994	19.996	102.937	19.628	28.543	0.535
386.500	273.819	79.994	19.996	102.937	19.624	28.819	0.531
387.000	273.996	79.994	19.996	102.938	19.622	28.935	0.496
387.500	274.281	79.995	19.997	102.937	19.618	29.230	0.458
388.000	274.501	79.994	19.995	102.937	19.612	29.640	0.483
388.500	274.751	79.994	19.995	102.937	19.607	30.002	0.487
389.000	275.067	79.994	19.996	102.937	19.604	30.230	0.518
389.500	275.321	79.994	19.995	102.936	19.602	30.385	0.568
390.000	275.581	79.994	19.996	102.937	19.597	30.723	0.542
390.500	275.861	79.995	19.995	102.937	19.592	31.041	0.527
391.000	276.043	79.994	19.995	102.935	19.584	31.639	0.501
391.500	276.287	79.994	19.995	102.936	19.583	31.677	0.444
392.000	276.576	79.994	19.995	102.936	19.579	31.951	0.479
392.500	276.788	79.996	19.994	102.936	19.575	32.244	0.517
393.000	277.045	79.994	19.995	102.937	19.570	32.621	0.485
393.500	277.275	79.995	19.995	102.938	19.566	32.900	0.478
394.000	277.512	79.995	19.995	102.938	19.564	33.048	0.478
394.500	277.782	79.993	19.996	102.938	19.555	33.676	0.487
395.000	278.029	79.995	19.995	102.939	19.553	33.780	0.512
395.500	278.277	79.994	19.996	102.938	19.546	34.244	0.506
396.000	278.507	79.995	19.996	102.938	19.541	34.587	0.487
396.500	278.793	79.994	19.996	102.939	19.536	34.929	0.497
397.000	279.049	79.994	19.995	102.939	19.533	35.158	0.529
397.500	279.256	79.994	19.995	102.939	19.527	35.583	0.502
398.000	279.521	79.995	19.995	102.940	19.520	36.106	0.468
398.500	279.789	79.994	19.995	102.940	19.515	36.413	0.502
399.000	280.042	79.994	19.995	102.940	19.514	36.504	0.527
399.500	280.301	79.994	19.995	102.940	19.509	36.810	0.517
400.000	280.527	79.995	19.994	102.939	19.505	37.132	0.499
400.500	280.793	79.994	19.996	102.938	19.501	37.395	0.488
401.000	281.019	79.995	19.994	102.938	19.496	37.779	0.491
401.500	281.309	79.995	19.995	102.939	19.492	38.037	0.504
402.000	281.541	79.994	19.995	102.941	19.489	38.250	0.519
402.500	281.782	79.994	19.995	102.942	19.483	38.632	0.498
403.000	282.040	79.992	19.995	102.943	19.480	38.889	0.486
403.500	282.326	79.992	19.995	102.945	19.476	39.112	0.521
404.000	282.560	79.993	19.995	102.952	19.470	39.583	0.532
404.500	282.819	79.994	19.994	102.956	19.466	39.840	0.507
405.000	283.009	79.994	19.995	102.957	19.465	39.910	0.471
405.500	283.291	79.992	19.995	102.957	19.458	40.370	0.460
406.000	283.541	79.994	19.995	102.955	19.456	40.544	0.502
406.500	283.800	79.995	19.996	102.949	19.451	40.896	0.521
407.000	284.043	79.995	19.995	102.947	19.450	40.976	0.505
407.500	284.310	79.993	19.995	102.946	19.447	41.187	0.505
408.000	284.567	79.994	19.996	102.948	19.441	41.573	0.517
408.500	284.786	79.994	19.996	102.951	19.437	41.885	0.500
409.000	285.071	79.992	19.996	102.952	19.433	42.130	0.491
409.500	285.305	79.995	19.995	102.950	19.428	42.500	0.512
410.000	285.535	79.995	19.996	102.950	19.427	42.530	0.491
410.500	285.771	79.994	19.996	102.949	19.421	42.986	0.465
411.000	286.036	79.993	19.995	102.945	19.415	43.404	0.483
411.500	286.289	79.995	19.996	102.942	19.412	43.592	0.509
412.000	286.544	79.994	19.995	102.942	19.410	43.714	0.513
412.500	286.779	79.994	19.994	102.942	19.409	43.820	0.499
413.000	287.004	79.995	19.995	102.942	19.402	44.266	0.475
413.500	287.272	79.994	19.996	102.942	19.399	44.506	0.476
414.000	287.536	79.995	19.997	102.943	19.398	44.572	0.512
414.500	287.820	79.996	19.996	102.943	19.392	45.004	0.540
415.000	288.055	79.995	19.995	102.942	19.389	45.209	0.533
415.500	288.311	79.994	19.995	102.942	19.387	45.344	0.505
416.000	288.559	79.995	19.995	102.942	19.387	45.334	0.498
416.500	288.810	79.995	19.996	102.941	19.383	45.593	0.501
417.000	289.086	79.995	19.995	102.946	19.378	45.965	0.513
417.500	289.335	79.994	19.996	102.951	19.377	46.031	0.526
418.000	289.574	79.995	19.996	102.951	19.376	46.108	0.507
418.500	289.819	79.993	19.996	102.952	19.371	46.429	0.486
419.000	290.076	79.993	19.996	102.952	19.367	46.712	0.493
419.500	290.334	79.994	19.996	102.946	19.369	46.617	0.509
420.000	290.568	79.992	19.996	102.941	19.367	46.704	0.504
420.500	290.870	79.995	19.996	102.945	19.363	47.015	0.514
421.000	291.118	79.995	19.995	102.945	19.359	47.305	0.543
421.500	291.394	79.994	19.996	102.947	19.357	47.457	0.537
422.000	291.653	79.995	19.995	102.947	19.359	47.306	0.530
422.500	291.906	79.994	19.995	102.946	19.357	47.403	0.524
423.000	292.133	79.994	19.995	102.943	19.357	47.424	0.496
423.500	292.388	79.994	19.995	102.942	19.351	47.867	0.480
424.000	292.637	79.994	19.996	102.940	19.351	47.866	0.493
424.500	292.895	79.993	19.995	102.941	19.349	47.986	0.506
425.000	293.125	79.994	19.994	102.941	19.348	48.029	0.498
425.500	293.376	79.994	19.995	102.941	19.347	48.111	0.484
426.000	293.624	79.994	19.995	102.941	19.350	47.938	0.490
426.500	293.922	79.995	19.995	102.940	19.345	48.278	0.523
427.000	294.168	79.995	19.996	102.940	19.344	48.359	0.545
427.500	294.398	79.992	19.995	102.942	19.347	48.131	0.510
428.000	294.661	79.994	19.997	102.943	19.343	48.414	0.484
428.500	294.925	79.994	19.996	102.943	19.344	48.362	0.510
429.000	295.171	79.995	19.995	102.944	19.344	48.320	0.519
429.500	295.398	79.994	19.995	102.944	19.344	48.355	0.492
430.000	295.711	79.995	19.996	102.943	19.345	48.257	0.507
430.500	295.963	79.993	19.996	102.943	19.342	48.503	0.552
431.000	296.205	79.995	19.995	102.943	19.345	48.292	0.529
431.500	296.447	79.994	19.995	102.942	19.346	48.167	0.489
432.000	296.711	79.994	19.995	102.942	19.347	48.147	0.495
432.500	296.959	79.992	19.994	102.942	19.345	48.294	0.509
433.000	297.191	79.995	19.998	102.942	19.346	48.223	0.496
433.500	297.479	79.995	19.996	102.942	19.351	47.816	0.500
434.000	297.730	79.996	19.996	102.942	19.348	48.017	0.529
434.500	297.976	79.996	19.995	102.941	19.353	47.720	0.518
435.000	298.223	79.995	19.996	102.941	19.355	47.573	0.495
435.500	298.454	79.996	19.996	102.940	19.357	47.427	0.486
436.000	298.741	79.995	19.996	102.940	19.357	47.422	0.498
436.500	298.986	79.997	19.995	102.940	19.355	47.535	0.525
437.000	299.188	79.995	19.996	102.940	19.360	47.186	0.489
437.500	299.458	79.996	19.996	102.939	19.363	46.987	0.460
438.000	299.724	79.995	19.996	102.938	19.367	46.750	0.504
438.500	299.981	79.996	19.996	102.937	19.366	46.823	0.529
439.000	300.230	79.997	19.996	102.934	19.368	46.660	0.514
439.500	300.486	79.996	19.996	102.932	19.373	46.272	0.506
440.000	300.749	79.996	19.996	102.932	19.374	46.204	0.512
440.500	301.001	79.995	19.996	102.933	19.375	46.166	0.517
441.000	301.243	79.997	19.997	102.931	19.378	45.974	0.504
441.500	301.480	79.995	19.996	102.932	19.383	45.626	0.487
442.000	301.777	79.996	19.996	102.933	19.383	45.570	0.507
442.500	301.991	79.996	19.996	102.933	19.388	45.231	0.523
443.000	302.280	79.997	19.997	102.932	19.388	45.245	0.507
443.500	302.506	79.996	19.996	102.932	19.392	44.958	0.509
444.000	302.788	79.994	19.997	102.931	19.396	44.695	0.511
444.500	303.006	79.995	19.995	102.931	19.401	44.340	0.504
445.000	303.284	79.992	19.997	102.926	19.404	44.111	0.498
445.500	303.539	79.996	19.996	102.921	19.410	43.689	0.515
446.000	303.797	79.995	19.996	102.914	19.417	43.260	0.523
446.500	304.054	79.993	19.997	102.912	19.419	43.096	0.514
447.000	304.292	79.995	19.996	102.912	19.427	42.525	0.505
447.500	304.556	79.993	19.996	102.915	19.427	42.512	0.498
448.000	304.773	79.995	19.997	102.917	19.432	42.178	0.492
448.500	305.058	79.994	19.995	102.920	19.440	41.650	0.492
449.000	305.288	79.994	19.996	102.919	19.442	41.489	0.509
449.500	305.543	79.995	19.997	102.916	19.449	40.999	0.499
450.000	305.771	79.994	19.997	102.917	19.453	40.697	0.484
450.500	306.043	79.993	19.996	102.916	19.459	40.302	0.492
451.000	306.298	79.993	19.996	102.916	19.462	40.081	0.513
451.500	306.517	79.994	19.996	102.917	19.468	39.697	0.500
452.000	306.799	79.993	19.996	102.913	19.473	39.365	0.488
452.500	307.065	79.994	19.996	102.908	19.480	38.818	0.525
453.000	307.309	79.994	19.996	102.906	19.483	38.653	0.529
453.500	307.599	79.994	19.996	102.904	19.487	38.345	0.522
454.000	307.821	79.994	19.996	102.902	19.492	37.997	0.523
454.500	308.067	79.994	19.995	102.901	19.501	37.378	0.490
455.000	308.340	79.994	19.995	102.900	19.506	37.070	0.494
455.500	308.575	79.994	19.995	102.900	19.509	36.802	0.513
456.000	308.812	79.994	19.996	102.899	19.515	36.418	0.489
456.500	309.081	79.995	19.995	102.898	19.517	36.268	0.489
457.000	309.312	79.995	19.995	102.899	19.526	35.625	0.503
457.500	309.565	79.994	19.996	102.902	19.532	35.204	0.492
458.000	309.837	79.994	19.995	102.905	19.535	35.023	0.504
458.500	310.084	79.995	19.995	102.905	19.540	34.696	0.522
459.000	310.333	79.995	19.995	102.905	19.546	34.244	0.508
459.500	310.589	79.994	19.995	102.905	19.550	33.948	0.501
460.000	310.870	79.996	19.995	102.903	19.554	33.671	0.521
460.500	311.172	79.993	19.996	102.899	19.559	33.374	0.560
461.000	311.359	79.995	19.995	102.899	19.565	32.913	0.536
461.500	311.647	79.995	19.995	102.899	19.569	32.642	0.482
462.000	311.907	79.994	19.996	102.898	19.573	32.405	0.512
462.500	312.170	79.994	19.995	102.898	19.578	32.048	0.536
463.000	312.431	79.994	19.995	102.899	19.581	31.842	0.524
463.500	312.661	79.995	19.995	102.899	19.585	31.530	0.507
464.000	312.918	79.995	19.995	102.900	19.590	31.189	0.488
464.500	313.172	79.994	19.995	102.900	19.594	30.900	0.499
465.000	313.446	79.994	19.995	102.901	19.601	30.418	0.520
465.500	313.667	79.995	19.995	102.902	19.602	30.327	0.512
466.000	313.966	79.993	19.995	102.901	19.606	30.082	0.507
466.500	314.209	79.994	19.996	102.901	19.608	29.924	0.531
467.000	314.461	79.995	19.996	102.901	19.614	29.520	0.519
467.500	314.680	79.993	19.997	102.900	19.615	29.476	0.483
468.000	314.939	79.994	19.995	102.899	19.619	29.183	0.475
468.500	315.180	79.994	19.996	102.899	19.622	28.969	0.489
469.000	315.454	79.995	19.996	102.899	19.623	28.885	0.507
469.500	315.711	79.995	19.996	102.900	19.624	28.806	0.523
470.000	315.982	79.993	19.995	102.900	19.631	28.346	0.530
470.500	316.211	79.993	19.996	102.900	19.628	28.547	0.514
471.000	316.460	79.993	19.994	102.900	19.630	28.403	0.489
471.500	316.701	79.993	19.996	102.901	19.629	28.460	0.484
472.000	316.927	79.992	19.995	102.902	19.632	28.274	0.478
472.500	317.190	79.993	19.995	102.905	19.632	28.294	0.478
473.000	317.440	79.994	19.996	102.905	19.632	28.252	0.501
473.500	317.692	79.993	19.995	102.905	19.634	28.094	0.507
474.000	317.934	79.994	19.995	102.905	19.634	28.100	0.498
474.500	318.196	79.994	19.995	102.905	19.634	28.097	0.500
475.000	318.458	79.994	19.994	102.901	19.634	28.098	0.514
475.500	318.725	79.994	19.994	102.901	19.636	27.979	0.526
476.000	318.959	79.992	19.995	102.902	19.636	27.975	0.514
476.500	319.242	79.994	19.995	102.902	19.637	27.947	0.509
477.000	319.470	79.994	19.995	102.902	19.636	28.005	0.514
477.500	319.683	79.993	19.995	102.903	19.632	28.254	0.476
478.000	319.929	79.993	19.994	102.903	19.633	28.178	0.450
478.500	320.226	79.993	19.995	102.903	19.632	28.263	0.501
479.000	320.458	79.994	19.995	102.903	19.631	28.330	0.536
479.500	320.700	79.993	19.995	102.904	19.627	28.600	0.501
480.000	320.995	79.992	19.996	102.904	19.622	28.990	0.505
480.500	321.216	79.993	19.995	102.905	19.622	28.971	0.527
481.000	321.443	79.995	19.996	102.907	19.619	29.182	0.482
481.500	321.713	79.994	19.996	102.912	19.614	29.513	0.472
482.000	321.976	79.993	19.996	102.912	19.612	29.635	0.515
482.500	322.203	79.993	19.995	102.918	19.611	29.763	0.512
483.000	322.489	79.993	19.995	102.921	19.608	29.956	0.502
483.500	322.698	79.993	19.996	102.924	19.601	30.420	0.504
484.000	322.949	79.992	19.996	102.922	19.602	30.334	0.477
484.500	323.229	79.993	19.997	102.921	19.599	30.546	0.495
485.000	323.461	79.993	19.995	102.915	19.598	30.625	0.522
485.500	323.723	79.995	19.996	102.912	19.596	30.768	0.503
486.000	323.957	79.993	19.996	102.908	19.594	30.947	0.495
486.500	324.166	79.994	19.995	102.905	19.590	31.216	0.470
487.000	324.414	79.994	19.996	102.904	19.585	31.555	0.450
487.501	324.689	79.995	19.994	102.904	19.584	31.622	0.490
488.000	324.854	79.994	19.995	102.904	19.585	31.558	0.482
488.500	325.156	79.994	19.995	102.902	19.579	31.965	0.454
489.000	325.423	79.993	19.995	102.902	19.577	32.107	0.518
489.500	325.644	79.995	19.994	102.902	19.571	32.505	0.528
490.000	325.879	79.995	19.994	102.902	19.567	32.777	0.472
490.500	326.172	79.995	19.995	102.904	19.562	33.127	0.492
491.000	326.431	79.996	19.995	102.906	19.556	33.548	0.540
491.500	326.648	79.996	19.994	102.911	19.552	33.852	0.514
492.000	326.898	79.995	19.994	102.919	19.546	34.285	0.472
492.500	327.155	79.995	19.993	102.926	19.541	34.601	0.487
493.000	327.391	79.996	19.994	102.934	19.540	34.699	0.499
493.500	327.620	79.995	19.995	102.945	19.532	35.275	0.479
494.000	327.848	79.996	19.995	102.951	19.527	35.621	0.461
494.500	328.114	79.996	19.996	102.954	19.524	35.812	0.476
495.000	328.374	79.996	19.996	102.954	19.520	36.083	0.510
495.500	328.585	79.996	19.994	102.948	19.513	36.539	0.498
496.000	328.849	79.995	19.994	102.940	19.511	36.682	0.473
496.500	329.105	79.996	19.995	102.934	19.511	36.708	0.497
497.000	329.344	79.996	19.996	102.928	19.505	37.095	0.507
497.500	329.615	79.995	19.995	102.920	19.498	37.575	0.503
498.000	329.815	79.995	19.996	102.917	19.497	37.640	0.490
498.500	330.061	79.995	19.995	102.911	19.488	38.282	0.459
499.000	330.329	79.994	19.995	102.907	19.483	38.649	0.480
499.500	330.562	79.996	19.996	102.908	19.478	38.981	0.508
500.000	330.809	79.994	19.995	102.915	19.464	39.952	0.491
500.500	331.032	79.995	19.996	102.922	19.459	40.321	0.475
501.000	331.299	79.996	19.995	102.929	19.450	40.992	0.479
501.500	331.555	79.994	19.995	102.935	19.440	41.684	0.506
502.000	331.805	79.995	19.996	102.943	19.427	42.589	0.515
502.500	332.049	79.994	19.997	102.956	19.423	42.884	0.500
503.000	332.274	79.996	19.995	102.971	19.413	43.558	0.482
503.500	332.491	79.994	19.996	102.979	19.404	44.159	0.456
504.000	332.784	79.995	19.996	102.985	19.397	44.669	0.476
504.500	333.010	79.995	19.997	102.986	19.392	45.009	0.514
505.000	333.277	79.994	19.995	102.974	19.387	45.343	0.506
505.500	333.535	79.994	19.996	102.960	19.381	45.744	0.508
506.000	333.776	79.994	19.995	102.947	19.375	46.153	0.512
506.500	334.011	79.995	19.996	102.934	19.368	46.672	0.488
507.000	334.262	79.995	19.996	102.920	19.365	46.897	0.481
507.500	334.516	79.994	19.996	102.912	19.356	47.527	0.496
508.000	334.778	79.995	19.996	102.906	19.346	48.177	0.510
508.500	335.004	79.994	19.997	102.908	19.340	48.588	0.502
509.000	335.262	79.995	19.995	102.910	19.329	49.353	0.486
509.500	335.507	79.996	19.996	102.914	19.323	49.773	0.493
510.000	335.779	79.996	19.996	102.921	19.315	50.352	0.510
510.500	336.015	79.996	19.996	102.929	19.308	50.839	0.512
511.000	336.251	79.995	19.996	102.938	19.299	51.523	0.490
511.500	336.480	79.997	19.995	102.950	19.286	52.412	0.469
512.000	336.760	79.996	19.995	102.962	19.277	53.008	0.487
512.500	336.963	79.996	19.996	102.973	19.265	53.872	0.495
513.000	337.216	79.996	19.995	102.980	19.256	54.510	0.470
513.500	337.483	79.996	19.995	102.982	19.244	55.374	0.489
514.000	337.718	79.996	19.995	102.987	19.237	55.836	0.511
514.500	337.932	79.995	19.995	102.993	19.227	56.557	0.475
515.000	338.221	79.997	19.996	102.992	19.218	57.170	0.476
515.500	338.449	79.998	19.995	102.987	19.210	57.744	0.510
516.000	338.681	79.996	19.996	102.986	19.199	58.455	0.488
516.500	338.903	79.998	19.996	102.978	19.192	59.001	0.456
517.000	339.161	79.996	19.995	102.965	19.184	59.537	0.467
517.500	339.422	79.997	19.996	102.957	19.173	60.312	0.500
518.000	339.673	79.998	19.995	102.953	19.166	60.741	0.516
518.500	339.908	79.997	19.995	102.946	19.158	61.341	0.499
519.000	340.163	79.998	19.995	102.942	19.146	62.154	0.488
519.500	340.394	79.997	19.995	102.943	19.136	62.833	0.488
520.000	340.626	79.997	19.994	102.946	19.123	63.732	0.474
520.500	340.891	79.998	19.995	102.952	19.111	64.582	0.480
521.000	341.149	79.995	19.996	102.959	19.096	65.635	0.510
521.500	341.379	79.995	19.995	102.970	19.078	66.883	0.506
522.000	341.627	79.997	19.996	102.982	19.068	67.635	0.483
522.500	341.902	79.997	19.995	102.994	19.053	68.644	0.501
523.000	342.113	79.996	19.995	103.003	19.037	69.821	0.505
523.500	342.364	79.996	19.995	103.019	19.026	70.590	0.474
524.000	342.588	79.995	19.996	103.029	19.008	71.839	0.469
524.500	342.806	79.993	19.996	103.034	18.994	72.778	0.459
525.000	343.038	79.995	19.997	103.034	18.978	73.903	0.446
525.500	343.330	79.995	19.995	103.037	18.969	74.529	0.487
526.000	343.587	79.995	19.996	103.037	18.957	75.413	0.537
526.500	343.802	79.995	19.995	103.033	18.941	76.491	0.510
527.000	344.035	79.993	19.996	103.026	18.927	77.476	0.460
527.500	344.310	79.993	19.996	103.019	18.917	78.223	0.478
528.000	344.537	79.994	19.995	103.007	18.900	79.382	0.505
528.500	344.765	79.994	19.995	102.993	18.888	80.225	0.478
529.000	345.053	79.995	19.996	102.985	18.875	81.085	0.486
529.500	345.250	79.992	19.996	102.980	18.864	81.893	0.501
530.000	345.503	79.994	19.997	102.980	18.851	82.757	0.468
530.500	345.760	79.993	19.995	102.980	18.831	84.114	0.480
531.000	346.003	79.994	19.996	102.979	18.817	85.148	0.505
531.500	346.257	79.993	19.996	102.982	18.801	86.220	0.499
532.000	346.504	79.993	19.996	102.990	18.784	87.428	0.499
532.500	346.770	79.995	19.995	103.000	18.768	88.491	0.507
533.000	346.998	79.992	19.995	103.018	18.752	89.670	0.503
533.500	347.231	79.994	19.997	103.036	18.736	90.783	0.478
534.000	347.496	79.992	19.998	103.049	18.714	92.323	0.479
534.500	347.737	79.994	19.996	103.060	18.695	93.628	0.502
535.000	347.987	79.994	19.997	103.069	18.674	95.136	0.499
535.500	348.202	79.993	19.997	103.068	18.650	96.761	0.478
536.000	348.443	79.993	19.996	103.059	18.633	97.971	0.461
536.500	348.661	79.992	19.997	103.063	18.615	99.249	0.458
537.000	348.943	79.993	19.996	103.075	18.595	100.653	0.480
537.500	349.174	79.994	19.996	103.082	18.578	101.817	0.507
538.000	349.443	79.993	19.996	103.084	18.560	103.085	0.506
538.500	349.681	79.993	19.997	103.090	18.544	104.189	0.503
539.000	349.947	79.994	19.996	103.087	18.529	105.229	0.506
539.500	350.179	79.994	19.996	103.067	18.511	106.455	0.501
540.000	350.447	79.994	19.996	103.048	18.495	107.547	0.499
540.500	350.656	79.993	19.996	103.041	18.479	108.666	0.489
541.000	350.916	79.992	19.996	103.039	18.467	109.553	0.473
541.500	351.142	79.993	19.997	103.027	18.451	110.667	0.478
542.000	351.393	79.993	19.995	103.020	18.435	111.770	0.482
542.500	351.642	79.994	19.995	103.022	18.418	112.929	0.489
543.000	351.899	79.993	19.995	103.017	18.402	114.138	0.503
543.500	352.161	79.996	19.996	103.008	18.387	115.250	0.512
544.000	352.423	79.994	19.997	103.012	18.378	115.894	0.522
544.500	352.669	79.993	19.995	103.016	18.365	116.829	0.517
545.000	352.925	79.993	19.994	103.031	18.354	117.573	0.505
545.500	353.179	79.994	19.995	103.046	18.339	118.543	0.506
546.000	353.452	79.993	19.995	103.050	18.325	119.522	0.518
546.500	353.679	79.993	19.995	103.050	18.310	120.541	0.514
547.000	353.917	79.993	19.995	103.049	18.297	121.492	0.482
547.500	354.171	79.993	19.995	103.042	18.289	122.019	0.478
548.000	354.396	79.994	19.994	103.061	18.281	122.527	0.485
548.500	354.629	79.994	19.995	103.088	18.275	122.945	0.468
549.000	354.885	79.994	19.996	103.092	18.268	123.358	0.474
549.500	355.121	79.994	19.995	103.084	18.261	123.808	0.490
550.000	355.398	79.994	19.994	103.074	18.256	124.119	0.502
550.500	355.638	79.993	19.994	103.040	18.249	124.653	0.515
551.000	355.887	79.994	19.995	103.019	18.235	125.617	0.503
551.500	356.117	79.994	19.994	103.029	18.211	127.282	0.485
552.000	356.362	79.992	19.994	103.031	18.196	128.421	0.477
552.500	356.616	79.993	19.995	103.017	18.177	129.798	0.487
553.000	356.854	79.994	19.995	103.008	18.160	131.040	0.495
553.500	357.140	79.993	19.995	103.042	18.145	132.126	0.508
554.000	357.378	79.993	19.996	103.113	18.132	133.060	0.524
554.500	357.624	79.993	19.994	103.159	18.120	133.898	0.504
555.000	357.852	79.993	19.995	103.181	18.110	134.626	0.479
555.500	358.149	79.992	19.996	103.196	18.095	135.612	0.500
556.000	358.379	79.994	19.994	103.174	18.087	136.209	0.526
556.500	358.616	79.994	19.996	103.105	18.080	136.723	0.497
557.000	358.882	79.994	19.995	103.090	18.077	136.906	0.485
557.500	359.114	79.993	19.995	103.111	18.073	137.124	0.501
558.000	359.362	79.991	19.995	103.099	18.071	137.212	0.489
558.500	359.612	79.992	19.995	103.076	18.070	137.205	0.489
559.000	359.858	79.992	19.996	103.058	18.069	137.244	0.497
559.500	360.080	79.993	19.995	103.027	18.069	137.258	0.482
560.000	360.366	79.993	19.996	102.984	18.067	137.350	0.488
560.500	360.652	79.994	19.995	102.959	18.058	137.951	0.540
561.000	360.893	79.994	19.995	102.934	18.051	138.416	0.550
561.500	361.133	79.993	19.995	102.947	18.040	139.218	0.504
562.000	361.371	79.993	19.996	102.964	18.031	139.892	0.479
562.500	361.640	79.993	19.996	102.973	18.023	140.514	0.492
563.000	361.904	79.993	19.994	103.007	18.013	141.240	0.521
563.500	362.136	79.995	19.996	103.090	18.001	142.109	0.514
564.000	362.364	79.995	19.996	103.135	17.992	142.742	0.477
564.500	362.671	79.994	19.996	103.146	17.978	143.740	0.498
565.000	362.932	79.995	19.996	103.164	17.964	144.696	0.552
565.500	363.147	79.995	19.995	103.183	17.958	145.222	0.522
566.000	363.430	79.995	19.995	103.161	17.948	145.915	0.487
566.500	363.657	79.995	19.996	103.161	17.941	146.381	0.505
567.000	363.886	79.995	19.996	103.183	17.937	146.706	0.483
567.500	364.152	79.995	19.995	103.183	17.932	146.994	0.475
568.000	364.407	79.995	19.995	103.161	17.931	147.066	0.508
568.500	364.669	79.994	19.995	103.126	17.926	147.362	0.519
569.000	364.911	79.995	19.995	103.073	17.928	147.212	0.511
569.500	365.145	79.995	19.995	103.038	17.928	147.142	0.490
570.000	365.390	79.996	19.995	103.016	17.925	147.320	0.477
570.500	365.676	79.995	19.995	102.999	17.924	147.415	0.505
571.000	365.903	79.995	19.995	102.987	17.918	147.827	0.522
571.500	366.166	79.995	19.995	102.970	17.915	148.066	0.501
572.000	366.437	79.996	19.995	102.958	17.910	148.419	0.512
572.500	366.650	79.994	19.995	102.962	17.905	148.764	0.509
573.000	366.890	79.997	19.995	102.992	17.899	149.172	0.469
573.500	367.160	79.995	19.995	103.033	17.894	149.564	0.482
574.000	367.400	79.997	19.995	103.055	17.884	150.244	0.510
574.500	367.650	79.996	19.994	103.069	17.875	150.928	0.500
575.000	367.921	79.997	19.996	103.095	17.865	151.582	0.506
575.500	368.178	79.996	19.995	103.105	17.857	152.162	0.525
576.000	368.410	79.996	19.994	103.120	17.847	152.843	0.508
576.500	368.682	79.997	19.994	103.151	17.847	152.866	0.496
577.000	368.895	79.996	19.995	103.168	17.841	153.268	0.495
577.500	369.185	79.997	19.995	103.172	17.835	153.661	0.494
578.000	369.396	79.996	19.995	103.167	17.829	154.122	0.502
578.500	369.642	79.994	19.996	103.146	17.825	154.419	0.479
579.000	369.879	79.995	19.995	103.119	17.817	154.977	0.469
579.500	370.175	79.996	19.994	103.101	17.811	155.353	0.508
580.000	370.404	79.995	19.995	103.078	17.809	155.512	0.529
580.500	370.658	79.995	19.994	103.060	17.799	156.216	0.504
581.000	370.936	79.997	19.995	103.047	17.796	156.450	0.508
581.500	371.140	79.996	19.995	103.042	17.793	156.596	0.507
582.000	371.390	79.996	19.995	103.041	17.789	156.911	0.468
582.500	371.642	79.996	19.995	103.046	17.782	157.389	0.478
583.000	371.902	79.995	19.995	103.053	17.779	157.631	0.507
583.500	372.150	79.995	19.994	103.061	17.772	158.087	0.510
584.000	372.413	79.996	19.995	103.066	17.767	158.437	0.509
584.500	372.617	79.995	19.995	103.074	17.761	158.835	0.489
585.000	372.902	79.995	19.994	103.084	17.759	158.969	0.478
585.500	373.134	79.996	19.995	103.089	17.754	159.379	0.503
586.000	373.367	79.995	19.994	103.092	17.750	159.623	0.491
586.500	373.637	79.995	19.994	103.092	17.744	160.054	0.484
587.000	373.875	79.996	19.995	103.092	17.738	160.471	0.505
587.500	374.177	79.995	19.995	103.092	17.733	160.826	0.524
588.000	374.378	79.995	19.995	103.095	17.730	161.021	0.522
588.500	374.663	79.996	19.995	103.094	17.725	161.360	0.495
589.000	374.886	79.994	19.995	103.093	17.720	161.696	0.497
589.500	375.123	79.996	19.995	103.093	17.717	161.930	0.484
590.000	375.388	79.995	19.996	103.093	17.712	162.304	0.481
590.500	375.668	79.995	19.995	103.094	17.710	162.398	0.523
591.000	375.929	79.995	19.995	103.094	17.705	162.752	0.542
591.500	376.184	79.998	19.994	103.094	17.700	163.118	0.529
592.000	376.414	79.995	19.996	103.094	17.699	163.160	0.501
592.500	376.649	79.996	19.995	103.094	17.695	163.450	0.475
593.000	376.906	79.996	19.995	103.093	17.695	163.478	0.478
593.500	377.142	79.996	19.994	103.092	17.691	163.748	0.492
594.000	377.414	79.995	19.994	103.091	17.686	164.046	0.501
594.500	377.607	79.996	19.995	103.091	17.684	164.204	0.487
595.000	377.933	79.996	19.994	103.091	17.685	164.156	0.492
595.500	378.170	79.995	19.994	103.092	17.681	164.442	0.540
596.000	378.421	79.996	19.996	103.093	17.678	164.604	0.525
596.500	378.667	79.996	19.995	103.094	17.677	164.690	0.493
597.000	378.942	79.995	19.996	103.091	17.673	164.989	0.509
597.500	379.167	79.996	19.995	103.092	17.672	165.046	0.510
598.000	379.444	79.997	19.995	103.091	17.673	164.954	0.501
598.500	379.708	79.996	19.996	103.091	17.672	165.050	0.522
599.000	379.966	79.996	19.995	103.092	17.667	165.376	0.531
599.500	380.256	79.997	19.994	103.094	17.669	165.198	0.535
600.000	380.495	79.995	19.995	103.094	17.670	165.154	0.539
600.500	380.719	79.996	19.995	103.094	17.667	165.340	0.496
601.000	380.998	79.996	19.996	103.094	17.668	165.295	0.483
601.500	381.267	79.996	19.995	103.094	17.668	165.288	0.526
602.000	381.524	79.994	19.994	103.094	17.668	165.270	0.538
602.500	381.756	79.997	19.995	103.092	17.669	165.199	0.508
603.000	382.038	79.993	19.995	103.092	17.669	165.220	0.501
603.500	382.308	79.995	19.995	103.092	17.673	164.937	0.533
604.000	382.565	79.995	19.994	103.090	17.675	164.827	0.539
604.500	382.811	79.994	19.995	103.087	17.675	164.772	0.515
605.000	383.102	79.993	19.994	103.085	17.677	164.675	0.520
605.500	383.334	79.994	19.995	103.078	17.681	164.375	0.530
606.000	383.647	79.994	19.995	103.078	17.686	163.999	0.534
606.500	383.873	79.995	19.996	103.079	17.687	163.977	0.542
607.000	384.165	79.993	19.996	103.077	17.693	163.536	0.529
607.500	384.420	79.993	19.995	103.078	17.697	163.255	0.532
608.000	384.663	79.995	19.996	103.079	17.701	163.000	0.522
608.500	384.945	79.994	19.995	103.074	17.704	162.754	0.512
609.000	385.223	79.993	19.996	103.069	17.710	162.350	0.543
609.500	385.469	79.994	19.995	103.069	17.713	162.081	0.542
610.000	385.738	79.994	19.995	103.065	17.721	161.520	0.519
610.500	386.019	79.994	19.995	103.066	17.726	161.212	0.532
611.000	386.255	79.993	19.996	103.067	17.730	160.888	0.534
611.500	386.497	79.994	19.996	103.065	17.736	160.487	0.498
612.000	386.769	79.994	19.995	103.062	17.745	159.885	0.496
612.500	387.048	79.994	19.995	103.061	17.753	159.290	0.532
613.000	387.330	79.994	19.995	103.059	17.763	158.599	0.556
613.500	387.565	79.994	19.995	103.058	17.767	158.315	0.539
614.000	387.862	79.993	19.995	103.057	17.778	157.518	0.524
614.500	388.145	79.994	19.995	103.057	17.786	156.998	0.556
615.000	388.399	79.994	19.997	103.057	17.795	156.386	0.559
615.500	388.661	79.993	19.995	103.058	17.805	155.641	0.527
616.000	388.950	79.992	19.996	103.057	17.814	155.060	0.533
616.500	389.169	79.994	19.996	103.057	17.824	154.299	0.529
617.000	389.462	79.993	19.995	103.056	17.836	153.500	0.510
617.500	389.750	79.995	19.995	103.055	17.844	152.891	0.546
618.000	389.991	79.994	19.995	103.052	17.856	152.045	0.555
618.500	390.274	79.994	19.996	103.046	17.869	151.170	0.526
619.000	390.507	79.994	19.996	103.044	17.879	150.435	0.520
619.500	390.801	79.993	19.996	103.041	17.894	149.413	0.522
620.000	391.063	79.992	19.996	103.036	17.906	148.566	0.542
620.500	391.346	79.993	19.996	103.033	17.919	147.650	0.551
621.000	391.617	79.993	19.996	103.032	17.931	146.839	0.550
621.500	391.884	79.994	19.995	103.027	17.948	145.638	0.546
622.000	392.141	79.993	19.996	103.024	17.961	144.758	0.531
622.500	392.428	79.994	19.997	103.023	17.972	143.992	0.534
623.000	392.698	79.994	19.996	103.020	17.987	142.933	0.551
623.500	392.945	79.995	19.997	103.019	18.003	141.798	0.537
624.000	393.206	79.994	19.998	103.018	18.018	140.730	0.512
624.500	393.477	79.993	19.996	103.016	18.031	139.834	0.519
625.000	393.737	79.994	19.996	103.016	18.050	138.542	0.531
625.500	393.996	79.993	19.996	103.015	18.066	137.422	0.525
626.000	394.255	79.993	19.998	103.014	18.082	136.288	0.518
626.500	394.566	79.993	19.996	103.013	18.096	135.308	0.544
627.000	394.816	79.994	19.996	103.013	18.113	134.108	0.566
627.500	395.106	79.994	19.997	103.006	18.130	132.927	0.550
628.000	395.358	79.994	19.997	103.001	18.149	131.636	0.541
628.500	395.596	79.993	19.996	102.994	18.163	130.618	0.516
629.000	395.871	79.993	19.996	102.987	18.182	129.310	0.501
629.500	396.184	79.993	19.996	102.980	18.200	128.027	0.550
630.000	396.426	79.994	19.996	102.980	18.216	126.924	0.572
630.500	396.701	79.994	19.996	102.979	18.232	125.789	0.536
631.000	396.968	79.994	19.997	102.981	18.249	124.624	0.529
631.500	397.213	79.992	19.997	102.982	18.266	123.406	0.527
632.000	397.490	79.994	19.996	102.981	18.286	122.010	0.517
632.500	397.728	79.995	19.995	102.980	18.305	120.714	0.519
633.000	398.043	79.994	19.995	102.978	18.325	119.300	0.534
633.500	398.240	79.992	19.996	102.975	18.342	118.140	0.533
634.000	398.532	79.995	19.996	102.974	18.359	116.985	0.501
634.500	398.805	79.995	19.995	102.973	18.379	115.580	0.527
635.000	399.067	79.994	19.996	102.972	18.396	114.383	0.550
635.500	399.383	79.994	19.995	102.965	18.419	112.784	0.557
636.000	399.607	79.994	19.994	102.963	18.434	111.710	0.559
636.500	399.878	79.995	19.995	102.962	18.452	110.451	0.517
637.000	400.132	79.994	19.996	102.959	18.477	108.718	0.510
637.500	400.414	79.994	19.995	102.958	18.494	107.528	0.531
638.000	400.663	79.994	19.994	102.961	18.515	106.025	0.534
638.500	400.935	79.993	19.996	102.956	18.534	104.761	0.526
639.000	401.204	79.994	19.995	102.950	18.557	103.137	0.531
639.500	401.447	79.994	19.996	102.947	18.578	101.666	0.527
640.000	401.756	79.994	19.996	102.941	18.598	100.292	0.532
640.500	402.009	79.994	19.996	102.937	18.619	98.821	0.556
641.000	402.278	79.993	19.996	102.937	18.636	97.629	0.542
641.500	402.529	79.994	19.996	102.937	18.656	96.265	0.522
642.000	402.836	79.993	19.995	102.937	18.677	94.746	0.539
642.500	403.087	79.994	19.996	102.938	18.699	93.254	0.558
643.000	403.336	79.994	19.997	102.938	18.716	92.054	0.529
643.500	403.616	79.993	19.996	102.938	18.734	90.789	0.514
644.000	403.870	79.994	19.995	102.939	18.755	89.339	0.531
644.500	404.113	79.994	19.996	102.939	18.776	87.879	0.516
645.000	404.406	79.994	19.996	102.937	18.793	86.707	0.516
645.500	404.661	79.995	19.995	102.936	18.812	85.366	0.542
646.000	404.901	79.995	19.996	102.929	18.832	83.938	0.522
646.500	405.167	79.995	19.995	102.923	18.853	82.497	0.500
647.000	405.436	79.994	19.995	102.919	18.870	81.319	0.521
647.500	405.715	79.994	19.995	102.913	18.893	79.676	0.542
648.000	405.965	79.995	19.997	102.908	18.911	78.462	0.538
648.500	406.231	79.993	19.995	102.910	18.929	77.218	0.523
649.000	406.488	79.995	19.995	102.908	18.949	75.834	0.520
649.500	406.760	79.996	19.998	102.904	18.969	74.424	0.526
650.000	407.000	79.995	19.997	102.904	18.985	73.325	0.520
650.500	407.276	79.996	19.999	102.907	19.003	72.067	0.515
651.000	407.584	79.996	19.999	102.908	19.021	70.770	0.550
651.500	407.829	79.994	19.998	102.911	19.040	69.439	0.568
652.000	408.046	79.995	19.996	102.912	19.057	68.268	0.507
652.500	408.304	79.994	19.998	102.912	19.079	66.781	0.468
653.000	408.599	79.995	19.996	102.909	19.095	65.616	0.514
653.500	408.860	79.995	19.995	102.905	19.109	64.680	0.555
654.000	409.115	79.995	19.995	102.902	19.129	63.257	0.536
654.500	409.376	79.995	19.996	102.901	19.146	62.087	0.515
655.000	409.660	79.996	19.994	102.897	19.163	60.900	0.530
655.500	409.874	79.995	19.995	102.897	19.179	59.802	0.522
656.000	410.142	79.997	19.995	102.895	19.195	58.640	0.490
656.500	410.410	79.995	19.996	102.891	19.213	57.439	0.509
657.000	410.706	79.994	19.996	102.888	19.229	56.275	0.550
657.500	410.918	79.994	19.996	102.884	19.246	55.143	0.536
658.000	411.216	79.995	19.996	102.879	19.261	54.084	0.509
658.500	411.483	79.993	19.995	102.874	19.276	53.016	0.537
659.000	411.724	79.996	19.995	102.872	19.292	51.910	0.537
659.500	411.970	79.996	19.994	102.869	19.302	51.200	0.498
660.000	412.236	79.993	19.995	102.870	19.321	49.878	0.500
660.500	412.505	79.995	19.994	102.870	19.337	48.755	0.523
661.000	412.773	79.993	19.995	102.868	19.354	47.632	0.536
661.500	413.039	79.994	19.996	102.868	19.367	46.703	0.536
662.000	413.277	79.995	19.994	102.866	19.382	45.655	0.519
662.500	413.547	79.994	19.995	102.863	19.392	44.990	0.506
663.000	413.793	79.994	19.994	102.862	19.406	43.979	0.512
663.500	414.053	79.996	19.995	102.862	19.420	42.997	0.511
664.000	414.325	79.995	19.995	102.862	19.435	41.937	0.519
664.500	414.567	79.994	19.994	102.862	19.449	40.996	0.523
665.000	414.831	79.995	19.995	102.862	19.461	40.132	0.510
665.500	415.063	79.994	19.994	102.862	19.472	39.405	0.501
666.000	415.335	79.995	19.994	102.861	19.485	38.450	0.500
666.500	415.592	79.995	19.994	102.862	19.499	37.511	0.516
667.000	415.886	79.995	19.994	102.862	19.507	36.956	0.540
667.500	416.130	79.993	19.996	102.862	19.520	36.022	0.544
668.000	416.375	79.996	19.994	102.862	19.535	35.029	0.513
668.500	416.648	79.994	19.995	102.862	19.546	34.271	0.504
669.000	416.926	79.995	19.994	102.863	19.558	33.386	0.535
669.500	417.170	79.996	19.994	102.863	19.569	32.604	0.537
670.000	417.420	79.996	19.994	102.863	19.580	31.888	0.508
670.500	417.712	79.996	19.994	102.863	19.593	30.953	0.518
671.000	417.927	79.995	19.994	102.863	19.603	30.265	0.524
671.500	418.218	79.998	19.994	102.862	19.615	29.411	0.506
672.000	418.428	79.996	19.993	102.862	19.623	28.851	0.503
672.500	418.720	79.996	19.994	102.862	19.633	28.193	0.502
673.000	418.949	79.996	19.996	102.863	19.644	27.436	0.512
673.500	419.186	79.997	19.996	102.862	19.655	26.661	0.494
674.000	419.459	79.997	19.994	102.860	19.664	25.995	0.488
674.500	419.724	79.997	19.994	102.859	19.671	25.543	0.524
675.000	419.998	79.997	19.995	102.859	19.682	24.790	0.538
675.500	420.214	79.997	19.995	102.859	19.689	24.250	0.515
676.000	420.491	79.995	19.996	102.859	19.703	23.335	0.492
676.500	420.751	79.996	19.994	102.859	19.707	23.020	0.515
677.000	420.992	79.996	19.996	102.860	19.715	22.445	0.519
677.500	421.239	79.997	19.996	102.860	19.723	21.930	0.495
678.000	421.522	79.995	19.996	102.859	19.732	21.290	0.509
678.500	421.781	79.996	19.994	102.859	19.737	20.916	0.536
679.000	422.014	79.995	19.995	102.860	19.745	20.364	0.517
679.500	422.262	79.996	19.996	102.859	19.753	19.857	0.487
680.000	422.485	79.995	19.996	102.856	19.762	19.216	0.476
680.500	422.746	79.995	19.995	102.856	19.768	18.770	0.478
681.000	422.999	79.994	19.995	102.857	19.776	18.207	0.499
681.500	423.241	79.996	19.994	102.854	19.783	17.711	0.504
682.000	423.495	79.995	19.994	102.848	19.792	17.089	0.496
682.500	423.760	79.994	19.995	102.849	19.794	16.951	0.508
683.000	424.043	79.994	19.995	102.849	19.800	16.524	0.534
683.500	424.285	79.995	19.996	102.848	19.810	15.830	0.537
684.000	424.536	79.993	19.996	102.850	19.816	15.420	0.509
684.500	424.813	79.994	19.995	102.856	19.822	15.015	0.510
685.000	425.035	79.993	19.995	102.859	19.825	14.827	0.513
685.500	425.334	79.995	19.996	102.859	19.835	14.082	0.510
686.000	425.564	79.993	19.996	102.856	19.837	14.012	0.525
686.500	425.845	79.994	19.996	102.852	19.843	13.566	0.520
687.000	426.106	79.994	19.997	102.847	19.846	13.371	0.526
687.500	426.354	79.992	19.996	102.841	19.853	12.887	0.526
688.000	426.586	79.994	19.996	102.840	19.859	12.469	0.495
688.500	426.855	79.993	19.996	102.840	19.860	12.382	0.491
689.000	427.107	79.995	19.997	102.840	19.865	12.055	0.511
689.500	427.354	79.992	19.996	102.840	19.870	11.700	0.510
690.000	427.585	79.995	19.997	102.844	19.872	11.542	0.488
690.500	427.828	79.993	19.997	102.842	19.879	11.084	0.476
691.000	428.094	79.994	19.996	102.838	19.882	10.858	0.492
691.500	428.312	79.993	19.995	102.841	19.885	10.621	0.496
692.000	428.600	79.994	19.996	102.845	19.892	10.129	0.495
692.500	428.843	79.994	19.995	102.846	19.893	10.053	0.518
693.000	429.120	79.995	19.996	102.849	19.899	9.675	0.525
693.500	429.331	79.995	19.995	102.854	19.900	9.616	0.504
694.000	429.629	79.996	19.996	102.854	19.904	9.301	0.499
694.500	429.870	79.994	19.996	102.851	19.910	8.898	0.524
695.000	430.102	79.994	19.995	102.850	19.911	8.793	0.507
695.500	430.350	79.994	19.995	102.850	19.916	8.465	0.476
696.000	430.621	79.994	19.996	102.848	19.919	8.292	0.499
696.500	430.849	79.995	19.994	102.848	19.923	8.001	0.509
697.000	431.103	79.993	19.996	102.850	19.928	7.629	0.491
697.500	431.344	79.995	19.996	102.853	19.927	7.715	0.488
698.000	431.589	79.995	19.995	102.853	19.928	7.641	0.491
698.500	431.865	79.994	19.995	102.856	19.934	7.219	0.503
699.000	432.109	79.994	19.995	102.856	19.935	7.131	0.520
699.500	432.364	79.995	19.995	102.858	19.940	6.831	0.510
700.000	432.593	79.995	19.996	102.856	19.944	6.561	0.492
700.500	432.860	79.993	19.996	102.855	19.941	6.721	0.490
701.000	433.141	79.993	19.996	102.855	19.944	6.500	0.522
701.500	433.374	79.994	19.996	102.856	19.946	6.394	0.531
702.000	433.601	79.994	19.996	102.856	19.948	6.227	0.487
702.500	433.861	79.994	19.995	102.853	19.950	6.120	0.473
703.000	434.096	79.994	19.996	102.853	19.952	5.984	0.491
703.500	434.371	79.994	19.996	102.853	19.951	6.024	0.503
704.000	434.631	79.995	19.996	102.853	19.957	5.631	0.523
704.500	434.894	79.993	19.996	102.850	19.956	5.727	0.529
705.000	435.124	79.994	19.996	102.852	19.959	5.473	0.508
705.500	435.355	79.995	19.996	102.852	19.962	5.271	0.477
706.000	435.610	79.994	19.995	102.846	19.963	5.227	0.474
706.500	435.876	79.993	19.996	102.847	19.966	5.003	0.503
707.000	436.126	79.995	19.995	102.849	19.963	5.199	0.518
707.500	436.403	79.993	19.996	102.848	19.968	4.882	0.522
708.000	436.653	79.995	19.996	102.848	19.968	4.843	0.527
708.500	436.898	79.994	19.996	102.853	19.968	4.867	0.511
709.000	437.134	79.995	19.996	102.850	19.971	4.632	0.488
709.500	437.398	79.994	19.996	102.845	19.972	4.577	0.491
710.000	437.599	79.994	19.996	102.840	19.970	4.725	0.483
710.500	437.868	79.995	19.996	102.841	19.972	4.592	0.467
711.000	438.101	79.994	19.996	102.838	19.976	4.326	0.486
711.500	438.352	79.994	19.997	102.838	19.977	4.260	0.493
712.000	438.596	79.993	19.996	102.837	19.977	4.207	0.489
712.500	438.876	79.994	19.996	102.839	19.981	3.930	0.510
713.000	439.085	79.993	19.996	102.834	19.980	4.002	0.506
713.500	439.371	79.993	19.997	102.835	19.982	3.911	0.492
714.000	439.584	79.992	19.997	102.840	19.981	3.952	0.497
714.500	439.840	79.993	19.996	102.842	19.980	3.996	0.484
715.000	440.105	79.992	19.996	102.840	19.982	3.855	0.495
715.500	440.360	79.992	19.996	102.840	19.986	3.635	0.521
716.000	440.575	79.993	19.998	102.833	19.989	3.413	0.495
716.500	440.847	79.994	19.996	102.828	19.985	3.707	0.478
717.000	441.073	79.993	19.997	102.828	19.986	3.589	0.492
717.500	441.360	79.993	19.997	102.829	19.987	3.548	0.505
718.000	441.579	79.994	19.996	102.832	19.986	3.614	0.509
718.500	441.808	79.994	19.996	102.840	19.988	3.481	0.478
719.000	442.076	79.993	19.995	102.844	19.986	3.584	0.473
719.500	442.324	79.994	19.997	102.843	19.993	3.145	0.506
720.000	442.559	79.994	19.996	102.844	19.989	3.379	0.499
720.500	442.823	79.992	19.996	102.846	19.992	3.206	0.491
721.000	443.039	79.994	19.996	102.844	19.996	2.944	0.490
721.500	443.329	79.994	19.996	102.843	19.993	3.134	0.494
722.000	443.563	79.993	19.996	102.848	19.993	3.124	0.515
722.500	443.802	79.995	19.996	102.853	19.994	3.048	0.498
723.000	443.989	79.995	19.995	102.854	19.998	2.802	0.449
723.500	444.285	79.993	19.997	102.855	19.995	2.955	0.454
724.000	444.465	79.994	19.995	102.854	19.994	3.024	0.480
724.500	444.784	79.995	19.995	102.852	19.999	2.731	0.488
725.000	445.031	79.995	19.996	102.850	19.999	2.735	0.532
725.500	445.276	79.997	19.996	102.846	20.000	2.600	0.529
726.000	445.548	79.996	19.995	102.845	19.997	2.855	0.505
726.500	445.749	79.996	19.996	102.845	19.994	3.073	0.495
727.000	446.015	79.995	19.996	102.845	19.997	2.870	0.470
727.500	446.295	79.996	19.995	102.844	20.003	2.435	0.507
728.000	446.501	79.996	19.995	102.843	19.992	3.221	0.516
728.500	446.741	79.996	19.996	102.844	20.005	2.275	0.466
729.000	447.000	79.996	19.995	102.846	20.009	2.009	0.473
729.500	447.302	79.997	19.995	102.848	19.996	2.933	0.530
730.000	447.525	79.997	19.995	102.850	20.001	2.579	0.543
730.500	447.769	79.996	19.995	102.851	20.000	2.636	0.496
731.000	447.994	79.997	19.995	102.850	19.994	3.029	0.468
731.500	448.196	79.996	19.995	102.850	20.000	2.630	0.448
732.000	448.545	79.997	19.997	102.851	20.007	2.167	0.489
732.500	448.707	79.995	19.995	102.852	20.000	2.613	0.531
733.000	448.992	79.997	19.996	102.854	20.000	2.602	0.479
733.500	449.285	79.995	19.997	102.854	20.000	2.659	0.513
734.000	449.456	79.996	19.996	102.856	19.998	2.771	0.521
734.500	449.770	79.996	19.997	102.855	20.001	2.532	0.474
735.000	450.021	79.997	19.996	102.856	20.000	2.604	0.525
735.500	450.255	79.997	19.994	102.858	20.002	2.463	0.525
736.000	450.459	79.996	19.995	102.857	19.998	2.788	0.462
736.500	450.746	79.995	19.995	102.855	20.005	2.310	0.464
737.000	451.041	79.995	19.995	102.852	19.999	2.699	0.537
737.500	451.180	79.996	19.996	102.852	20.001	2.560	0.508
738.000	451.435	79.995	19.996	102.848	19.999	2.676	0.414
738.500	451.846	79.995	19.995	102.849	20.005	2.292	0.530
739.000	452.022	79.995	19.996	102.849	20.003	2.454	0.627
739.500	452.266	79.995	19.994	102.853	20.002	2.476	0.504
740.000	452.427	79.995	19.995	102.853	20.004	2.382	0.412
740.500	452.705	79.997	19.997	102.854	19.998	2.741	0.422
741.000	452.967	79.995	19.995	102.852	20.002	2.486	0.489
741.500	453.317	79.996	19.995	102.850	20.004	2.372	0.576
742.000	453.307	79.996	19.994	102.848	20.003	2.389	0.476
742.501	454.012	79.995	19.996	102.847	20.001	2.566	0.518
743.000	454.025	79.994	19.996	102.844	19.999	2.672	0.707
743.500	453.787	79.995	19.996	102.849	20.002	2.518	0.246
744.000	454.094	79.995	19.995	102.853	20.000	2.638	-0.078
744.500	454.430	79.994	19.996	102.854	19.999	2.714	0.356
745.000	454.491	79.995	19.995	102.855	20.000	2.640	0.520
745.500	454.810	79.995	19.994	102.858	20.000	2.645	0.389
746.000	455.721	79.995	19.995	102.858	19.997	2.835	0.805
746.500	455.607	79.995	19.995	102.856	20.000	2.653	1.013
747.000	455.994	79.995	19.995	102.855	20.000	2.644	0.535
747.500	456.235	79.996	19.995	102.857	20.002	2.501	0.451
748.000	456.396	79.996	19.995	102.856	20.000	2.615	0.515
748.500	456.650	79.996	19.995	102.851	20.000	2.624	0.408
749.000	456.854	79.996	19.995	102.847	19.998	2.780	0.436
749.500	457.225	79.997	19.995	102.847	20.000	2.666	0.517
750.000	457.391	79.998	19.994	102.845	20.000	2.659	0.556
750.500	457.715	79.996	19.996	102.846	19.998	2.755	0.514
751.000	457.863	79.996	19.995	102.850	19.999	2.731	0.481
751.500	458.169	79.997	19.995	102.853	20.003	2.423	0.463
752.000	458.406	79.997	19.995	102.848	19.998	2.765	0.498
752.500	458.673	79.997	19.995	102.847	20.000	2.611	0.523
753.000	458.926	79.997	19.995	102.844	20.001	2.535	0.512
753.500	459.140	79.998	19.994	102.842	19.997	2.824	0.494
754.000	459.390	79.998	19.995	102.843	20.000	2.645	0.465
754.500	459.663	79.998	19.995	102.846	19.999	2.723	0.494
755.000	459.916	79.998	19.994	102.843	19.999	2.718	0.525
755.500	460.134	79.999	19.994	102.843	19.998	2.745	0.499
756.000	460.376	79.998	19.995	102.841	20.001	2.574	0.466
756.500	460.612	79.999	19.995	102.839	19.999	2.701	0.469
757.000	460.872	79.998	19.994	102.843	19.999	2.678	0.487
757.500	461.105	79.997	19.994	102.847	20.000	2.621	0.495
758.000	461.375	79.999	19.995	102.847	19.999	2.718	0.498
758.500	461.583	79.997	19.995	102.843	19.999	2.706	0.490
759.000	461.805	79.997	19.995	102.839	19.998	2.761	0.454
759.500	462.059	79.997	19.994	102.835	19.998	2.788	0.453
760.000	462.306	79.999	19.994	102.835	19.998	2.756	0.488
760.500	462.560	79.996	19.995	102.836	19.996	2.921	0.501
761.000	462.790	79.996	19.996	102.838	19.997	2.807	0.493
761.500	463.044	79.996	19.996	102.838	19.996	2.915	0.484
762.000	463.276	79.996	19.995	102.836	19.997	2.856	0.485
762.500	463.523	79.995	19.995	102.833	19.998	2.775	0.483
763.000	463.749	79.996	19.995	102.831	19.998	2.771	0.476
763.500	463.940	79.995	19.994	102.830	19.995	2.999	0.445
764.000	464.223	79.995	19.994	102.832	19.998	2.800	0.445
764.500	464.485	79.995	19.996	102.836	19.996	2.938	0.509
765.000	464.692	79.995	19.995	102.840	19.996	2.894	0.507
765.500	464.947	79.994	19.996	102.846	19.997	2.832	0.466
766.000	465.182	79.994	19.995	102.852	19.998	2.788	0.476
766.500	465.421	79.994	19.995	102.856	19.995	2.957	0.482
767.000	465.657	79.995	19.995	102.857	19.995	2.997	0.475
767.500	465.883	79.995	19.995	102.858	19.997	2.835	0.468
768.000	466.123	79.995	19.996	102.857	19.995	3.014	0.464
768.500	466.375	79.994	19.996	102.855	19.999	2.672	0.480
769.000	466.617	79.993	19.995	102.853	19.994	3.035	0.493
769.500	466.880	79.994	19.997	102.852	19.996	2.917	0.499
770.000	467.081	79.994	19.995	102.850	19.995	2.970	0.484
770.500	467.375	79.994	19.995	102.848	19.999	2.723	0.480
771.000	467.600	79.994	19.996	102.846	19.998	2.756	0.507
771.500	467.823	79.994	19.996	102.849	19.996	2.904	0.484
772.000	468.098	79.994	19.995	102.850	19.998	2.773	0.473
772.500	468.309	79.994	19.996	102.851	19.994	3.043	0.492
773.000	468.600	79.994	19.996	102.852	19.995	3.004	0.494
773.500	468.788	79.995	19.996	102.856	19.994	3.077	0.491
774.000	469.054	79.994	19.996	102.854	19.995	2.978	0.467
774.500	469.300	79.995	19.995	102.851	19.995	2.945	0.483
775.000	469.562	79.995	19.996	102.852	19.997	2.814	0.510
775.500	469.766	79.995	19.995	102.851	19.996	2.894	0.487
776.000	470.037	79.995	19.996	102.845	19.997	2.845	0.471
776.500	470.323	79.996	19.995	102.842	19.993	3.098	0.516
777.000	470.502	79.996	19.996	102.842	19.995	2.967	0.511
777.500	470.758	79.995	19.995	102.840	19.997	2.862	0.450
778.000	471.036	79.994	19.995	102.843	19.998	2.777	0.485
778.500	471.257	79.995	19.996	102.848	19.995	3.003	0.517
779.000	471.505	79.994	19.996	102.851	19.994	3.033	0.484
779.500	471.739	79.995	19.995	102.853	19.997	2.845	0.476
780.000	471.989	79.995	19.996	102.850	20.000	2.667	0.483
780.500	472.253	79.995	19.995	102.846	19.994	3.067	0.499
781.000	472.444	79.995	19.995	102.843	19.996	2.927	0.484
781.500	472.745	79.995	19.995	102.843	19.995	2.946	0.474
782.000	472.969	79.994	19.996	102.845	19.997	2.866	0.509
782.500	473.227	79.995	19.996	102.848	19.998	2.784	0.503
783.000	473.470	79.994	19.996	102.852	19.995	3.007	0.491
783.500	473.701	79.995	19.994	102.853	19.995	2.995	0.487
784.000	473.987	79.993	19.996	102.847	19.994	3.018	0.496
784.500	474.266	79.995	19.996	102.843	19.998	2.792	0.542
785.000	474.514	79.995	19.995	102.839	19.995	2.997	0.546
785.500	474.731	79.995	19.995	102.838	19.996	2.942	0.496
786.000	475.033	79.995	19.995	102.838	19.998	2.765	0.491
786.500	475.200	79.996	19.994	102.840	19.996	2.936	0.494
787.000	475.445	79.994	19.995	102.845	19.998	2.792	0.440
787.500	475.747	79.994	19.995	102.850	19.995	2.983	0.479
788.000	475.968	79.994	19.994	102.852	19.994	3.038	0.535
788.500	476.228	79.994	19.996	102.855	19.996	2.917	0.503
789.000	476.441	79.994	19.996	102.860	19.996	2.934	0.477
789.500	476.697	79.994	19.996	102.861	20.003	2.423	0.471
790.000	476.959	79.994	19.995	102.859	19.997	2.866	0.493
790.500	477.181	79.993	19.995	102.857	19.995	2.959	0.501
791.000	477.450	79.995	19.995	102.857	19.998	2.781	0.487
791.500	477.714	79.994	19.996	102.857	19.998	2.739	0.512
792.000	477.941	79.993	19.996	102.856	19.999	2.735	0.513
792.500	478.190	79.993	19.995	102.857	19.996	2.915	0.484
793.000	478.440	79.993	19.996	102.859	19.996	2.891	0.487
793.500	478.663	79.994	19.996	102.859	19.999	2.733	0.485
794.000	478.964	79.993	19.995	102.857	20.000	2.625	0.498
794.500	479.154	79.993	19.996	102.855	20.001	2.564	0.508
795.000	479.436	79.991	19.997	102.857	19.996	2.908	0.482
795.500	479.668	79.993	19.995	102.857	19.998	2.792	0.493
796.000	479.942	79.992	19.996	102.857	19.996	2.887	0.510
796.500	480.178	79.994	19.996	102.857	19.998	2.786	0.508
797.000	480.436	79.993	19.997	102.856	19.998	2.796	0.502
797.500	480.649	79.993	19.996	102.851	19.995	2.972	0.482
798.000	480.895	79.993	19.996	102.844	19.997	2.824	0.465
798.500	481.171	79.991	19.997	102.838	19.997	2.814	0.491
799.000	481.416	79.992	19.997	102.835	19.999	2.718	0.522
799.500	481.659	79.992	19.996	102.837	19.996	2.915	0.505
800.000	481.895	79.993	19.995	102.842	19.996	2.891	0.484
800.500	482.154	79.992	19.997	102.848	19.995	2.948	0.487
801.000	482.397	79.994	19.995	102.855	19.997	2.837	0.498
801.500	482.671	79.993	19.997	102.858	19.996	2.908	0.509
802.000	482.883	79.993	19.996	102.856	19.996	2.934	0.502
802.500	483.141	79.994	19.996	102.850	19.997	2.826	0.478
803.000	483.363	79.992	19.996	102.849	19.997	2.875	0.475
803.500	483.657	79.991	19.997	102.851	19.997	2.830	0.498
804.000	483.919	79.993	19.996	102.852	19.996	2.927	0.536
804.500	484.144	79.992	19.997	102.856	19.998	2.784	0.522
805.000	484.406	79.993	19.996	102.860	19.998	2.797	0.487
805.500	484.658	79.994	19.997	102.860	19.997	2.845	0.500
806.000	484.889	79.993	19.997	102.855	19.996	2.879	0.499
806.500	485.150	79.995	19.995	102.854	19.996	2.896	0.488
807.000	485.419	79.994	19.997	102.853	19.998	2.761	0.511
807.500	485.635	79.994	19.996	102.851	19.997	2.807	0.508
808.000	485.900	79.995	19.995	102.847	19.997	2.868	0.483
808.500	486.179	79.994	19.995	102.844	19.997	2.870	0.512
809.000	486.382	79.996	19.995	102.844	19.999	2.708	0.513
809.500	486.644	79.995	19.995	102.844	19.999	2.697	0.473
810.000	486.941	79.995	19.997	102.844	19.996	2.891	0.512
810.500	487.165	79.995	19.996	102.848	19.994	3.073	0.540
811.000	487.412	79.995	19.995	102.854	19.996	2.879	0.496
811.500	487.632	79.995	19.995	102.853	19.997	2.811	0.469
812.000	487.912	79.996	19.997	102.848	19.999	2.714	0.484
812.500	488.106	79.995	19.995	102.848	20.001	2.568	0.487
813.000	488.392	79.995	19.995	102.848	19.998	2.777	0.477
813.500	488.657	79.994	19.994	102.847	20.000	2.608	0.515
814.000	488.888	79.997	19.995	102.850	19.997	2.854	0.524
814.500	489.155	79.996	19.995	102.853	19.999	2.708	0.497
815.000	489.366	79.996	19.994	102.852	19.999	2.725	0.488
815.500	489.663	79.996	19.995	102.848	19.996	2.885	0.493
816.000	489.907	79.995	19.995	102.843	19.997	2.839	0.524
816.500	490.163	79.996	19.994	102.840	19.995	2.976	0.520
817.000	490.421	79.995	19.995	102.840	19.995	2.950	0.507
817.500	490.659	79.994	19.996	102.842	20.000	2.602	0.505
818.000	490.915	79.996	19.995	102.845	19.997	2.815	0.495
818.500	491.148	79.996	19.995	102.848	19.997	2.834	0.492
819.000	491.408	79.995	19.996	102.848	19.997	2.860	0.491
819.500	491.692	79.995	19.996	102.851	20.003	2.441	0.518
820.000	491.911	79.994	19.996	102.852	20.001	2.583	0.523
820.500	492.182	79.995	19.995	102.853	20.001	2.541	0.497
821.000	492.418	79.995	19.995	102.850	20.001	2.593	0.499
821.500	492.697	79.994	19.996	102.848	20.003	2.418	0.511
822.000	492.932	79.995	19.996	102.846	20.000	2.650	0.514
822.500	493.206	79.995	19.996	102.843	19.999	2.697	0.512
823.000	493.499	79.995	19.995	102.844	20.001	2.579	0.539
823.500	493.746	79.996	19.996	102.848	20.004	2.331	0.553
824.000	494.025	79.996	19.994	102.847	20.001	2.551	0.532
824.500	494.245	79.997	19.996	102.846	20.000	2.640	0.512
825.000	494.531	79.996	19.994	102.847	20.000	2.619	0.502
825.500	494.743	79.995	19.995	102.847	20.001	2.579	0.502
826.000	495.088	79.996	19.994	102.847	20.001	2.549	0.528
826.500	495.307	79.994	19.996	102.851	20.000	2.644	0.560
827.000	495.574	79.994	19.997	102.854	20.001	2.549	0.525
827.500	495.858	79.996	19.996	102.856	20.001	2.534	0.519
828.000	496.088	79.996	19.995	102.857	19.999	2.724	0.532
828.500	496.345	79.995	19.994	102.858	20.002	2.517	0.501
829.000	496.599	79.998	19.996	102.857	19.999	2.705	0.499
829.500	496.877	79.998	19.995	102.857	19.998	2.763	0.521
830.000	497.117	79.995	19.995	102.857	20.000	2.623	0.525
830.500	497.380	79.999	19.996	102.856	19.999	2.676	0.510
831.000	497.675	79.996	19.996	102.855	19.998	2.796	0.530
831.500	497.915	79.998	19.996	102.853	20.000	2.651	0.547
832.000	498.190	79.997	19.997	102.853	20.001	2.581	0.526
832.500	498.430	79.997	19.996	102.853	19.997	2.843	0.515
833.000	498.732	79.997	19.994	102.855	19.998	2.756	0.528
833.500	499.029	79.999	19.995	102.856	19.999	2.678	0.571
834.000	499.252	79.998	19.994	102.857	19.999	2.683	0.560
834.500	499.550	79.997	19.995	102.857	19.999	2.721	0.520
835.000	499.810	79.997	19.995	102.856	19.999	2.729	0.540
835.500	500.105	79.997	19.995	102.856	19.998	2.801	0.557
836.000	500.320	79.997	19.996	102.856	19.998	2.739	0.533
836.500	500.593	79.996	19.995	102.856	19.999	2.727	0.499
837.000	500.919	79.997	19.995	102.856	19.999	2.726	0.543
837.500	501.154	79.996	19.994	102.856	19.997	2.870	0.580
838.000	501.432	79.995	19.996	102.854	19.999	2.714	0.537
838.500	501.710	79.996	19.995	102.854	19.998	2.765	0.534
839.000	501.981	79.997	19.994	102.852	19.998	2.746	0.553
839.500	502.234	79.996	19.995	102.852	19.999	2.722	0.537
840.000	502.489	79.996	19.995	102.852	19.998	2.775	0.516
840.500	502.767	79.995	19.996	102.853	19.999	2.731	0.521
841.000	503.030	79.996	19.996	102.854	19.998	2.805	0.537
841.500	503.279	79.995	19.997	102.856	20.000	2.638	0.526
842.000	503.550	79.995	19.996	102.857	20.000	2.621	0.516
842.500	503.846	79.994	19.995	102.855	19.999	2.684	0.543
843.000	504.076	79.994	19.996	102.851	19.998	2.786	0.546
843.500	504.369	79.993	19.996	102.845	19.998	2.752	0.525
844.000	504.625	79.993	19.994	102.845	19.999	2.705	0.537
844.500	504.880	79.995	19.995	102.845	20.000	2.652	0.530
845.000	505.170	79.995	19.995	102.842	19.998	2.747	0.528
845.500	505.477	79.995	19.995	102.841	19.996	2.881	0.571
846.000	505.725	79.994	19.995	102.845	19.999	2.710	0.576
846.500	505.968	79.994	19.995	102.845	19.998	2.788	0.523
847.000	506.281	79.993	19.995	102.845	19.998	2.760	0.524
847.500	506.545	79.994	19.994	102.851	20.000	2.657	0.567
848.000	506.835	79.994	19.995	102.856	19.994	3.054	0.565
848.500	507.088	79.994	19.996	102.859	19.997	2.845	0.549
849.000	507.352	79.993	19.996	102.856	19.998	2.790	0.530
849.500	507.631	79.996	19.995	102.854	19.999	2.682	0.530
850.000	507.921	79.995	19.995	102.854	19.999	2.733	0.556
850.500	508.200	79.994	19.995	102.854	19.997	2.845	0.569
851.000	508.484	79.995	19.994	102.853	19.997	2.841	0.566
851.500	508.746	79.992	19.995	102.856	19.997	2.830	0.554
852.000	509.011	79.994	19.994	102.858	19.998	2.769	0.536
852.500	509.307	79.994	19.995	102.857	19.997	2.819	0.544
853.000	509.546	79.993	19.995	102.858	19.998	2.746	0.548
853.500	509.837	79.995	19.996	102.859	19.995	2.966	0.533
854.000	510.121	79.995	19.996	102.858	19.996	2.925	0.553
854.500	510.361	79.996	19.996	102.858	19.999	2.718	0.550
855.000	510.630	79.994	19.995	102.860	19.998	2.754	0.516
855.500	510.925	79.994	19.996	102.860	19.997	2.824	0.536
856.000	511.179	79.995	19.995	102.860	19.998	2.761	0.557
856.500	511.483	79.994	19.995	102.861	19.997	2.862	0.554
857.000	511.727	79.995	19.996	102.861	19.998	2.803	0.553
857.500	512.004	79.994	19.995	102.859	19.999	2.674	0.535
858.000	512.247	79.995	19.995	102.858	19.998	2.752	0.520
858.500	512.545	79.995	19.994	102.854	19.998	2.762	0.530
859.000	512.806	79.996	19.996	102.852	19.996	2.904	0.550
859.500	513.051	79.994	19.995	102.848	19.999	2.674	0.532
860.000	513.380	79.995	19.996	102.847	19.996	2.878	0.540
860.500	513.638	79.995	19.995	102.849	19.998	2.790	0.581
861.000	513.916	79.994	19.995	102.853	19.997	2.855	0.562
861.500	514.205	79.994	19.995	102.855	19.997	2.817	0.551
862.000	514.446	79.995	19.995	102.859	19.997	2.822	0.548
862.500	514.736	79.995	19.995	102.861	19.998	2.783	0.531
863.000	514.984	79.994	19.995	102.861	19.995	2.976	0.534
863.500	515.257	79.995	19.995	102.856	19.996	2.912	0.529
864.000	515.554	79.994	19.995	102.850	19.996	2.921	0.546
864.500	515.819	79.994	19.995	102.846	19.993	3.104	0.566
865.000	516.081	79.994	19.996	102.841	19.998	2.796	0.544
865.500	516.320	79.994	19.995	102.841	19.998	2.798	0.514
866.000	516.621	79.993	19.996	102.841	19.999	2.726	0.521
866.500	516.865	79.993	19.996	102.847	19.996	2.927	0.543
867.000	517.169	79.994	19.996	102.848	19.999	2.731	0.546
867.500	517.420	79.993	19.996	102.851	19.996	2.891	0.551
868.000	517.691	79.994	19.996	102.852	19.997	2.855	0.539
868.500	517.957	79.993	19.995	102.857	19.995	2.984	0.530
869.000	518.230	79.994	19.996	102.859	19.996	2.914	0.538
869.500	518.496	79.993	19.996	102.863	19.995	2.950	0.539
870.000	518.791	79.994	19.996	102.864	19.997	2.857	0.550
870.500	519.063	79.994	19.996	102.864	19.997	2.845	0.564
871.000	519.319	79.993	19.996	102.862	19.997	2.807	0.547
871.500	519.590	79.993	19.996	102.861	19.998	2.758	0.527
872.000	519.880	79.993	19.995	102.860	19.998	2.792	0.544
872.500	520.139	79.994	19.995	102.859	19.999	2.724	0.555
873.000	520.388	79.994	19.996	102.859	19.997	2.824	0.528
873.500	520.685	79.994	19.996	102.861	19.997	2.843	0.527
874.000	520.929	79.995	19.995	102.861	19.996	2.927	0.544
874.500	521.206	79.994	19.996	102.861	19.996	2.897	0.531
875.000	521.496	79.992	19.996	102.861	19.995	2.953	0.544
875.500	521.751	79.994	19.996	102.863	19.996	2.879	0.556
876.000	522.055	79.993	19.996	102.862	19.995	2.990	0.552
876.500	522.312	79.992	19.995	102.861	19.996	2.929	0.560
877.000	522.579	79.992	19.995	102.861	19.999	2.714	0.542
877.500	522.833	79.993	19.996	102.859	19.995	2.961	0.522
878.000	523.097	79.993	19.996	102.857	19.997	2.860	0.520
878.500	523.381	79.993	19.996	102.857	19.999	2.720	0.533
879.000	523.669	79.995	19.995	102.858	19.996	2.942	0.559
879.500	523.905	79.994	19.994	102.857	19.996	2.908	0.548
880.000	524.177	79.994	19.995	102.859	19.998	2.750	0.516
880.500	524.476	79.995	19.996	102.859	19.994	3.020	0.540
881.000	524.748	79.995	19.995	102.859	19.997	2.809	0.572
881.500	525.051	79.993	19.996	102.858	19.993	3.132	0.573
882.000	525.267	79.994	19.996	102.858	19.999	2.695	0.546
882.500	525.548	79.994	19.995	102.856	19.996	2.932	0.508
883.000	525.784	79.995	19.997	102.856	19.996	2.881	0.507
883.500	526.104	79.995	19.995	102.856	19.996	2.944	0.536
884.000	526.359	79.995	19.997	102.856	19.995	2.985	0.565
884.500	526.631	79.996	19.997	102.856	19.996	2.930	0.551
885.000	526.894	79.995	19.996	102.858	19.994	3.041	0.531
885.500	527.159	79.995	19.996	102.857	19.995	2.970	0.532
886.000	527.430	79.994	19.997	102.857	19.993	3.120	0.532
886.500	527.725	79.996	19.996	102.857	19.996	2.915	0.550
887.000	527.951	79.995	19.996	102.857	19.995	2.957	0.544
887.500	528.274	79.995	19.995	102.858	19.997	2.818	0.536
888.000	528.513	79.996	19.995	102.857	19.997	2.843	0.555
888.500	528.732	79.995	19.996	102.856	19.995	3.012	0.509
889.000	529.014	79.995	19.997	102.856	19.993	3.132	0.480
889.500	529.282	79.996	19.996	102.855	19.994	3.081	0.526
890.000	529.586	79.995	19.995	102.855	19.996	2.917	0.561
890.500	529.847	79.994	19.997	102.854	19.993	3.086	0.568
891.000	530.097	79.996	19.997	102.849	19.994	3.022	0.538
891.500	530.382	79.995	19.996	102.844	19.995	2.980	0.523
892.000	530.660	79.995	19.997	102.842	19.995	2.976	0.549
892.500	530.916	79.995	19.997	102.842	19.997	2.832	0.548
893.000	531.186	79.996	19.997	102.844	19.996	2.893	0.530
893.500	531.468	79.996	19.996	102.845	19.995	2.959	0.539
894.000	531.757	79.995	19.997	102.849	19.993	3.139	0.562
894.500	531.993	79.995	19.997	102.847	19.996	2.936	0.548
895.000	532.278	79.995	19.996	102.846	19.994	3.029	0.523
895.500	532.549	79.995	19.997	102.846	19.992	3.170	0.539
896.000	532.806	79.996	19.997	102.850	19.996	2.927	0.543
896.500	533.076	79.994	19.996	102.851	19.992	3.178	0.527
897.000	533.400	79.995	19.996	102.852	19.994	3.052	0.560
897.500	533.617	79.995	19.996	102.847	19.997	2.857	0.567
898.000	533.921	79.995	19.997	102.847	19.995	2.972	0.531
898.500	534.148	79.996	19.996	102.846	19.994	3.043	0.526
899.000	534.452	79.996	19.996	102.846	19.995	2.959	0.531
899.500	534.669	79.995	19.997	102.849	19.993	3.105	0.526
900.000	534.961	79.995	19.995	102.855	19.994	3.028	0.515
900.500	535.254	79.995	19.995	102.856	19.995	2.995	0.547
901.000	535.530	79.995	19.997	102.855	19.993	3.102	0.577
901.500	535.776	79.994	19.997	102.849	19.997	2.813	0.545
902.000	536.059	79.996	19.996	102.847	19.994	3.037	0.525
902.500	536.321	79.995	19.996	102.848	19.992	3.194	0.537
903.000	536.594	79.997	19.995	102.847	19.992	3.202	0.540
903.500	536.855	79.995	19.995	102.848	19.996	2.889	0.535
904.000	537.095	79.996	19.995	102.853	19.995	2.952	0.518
904.500	537.410	79.997	19.995	102.851	19.994	3.041	0.528
905.000	537.673	79.997	19.995	102.848	19.994	3.067	0.567
905.500	537.916	79.995	19.995	102.850	19.994	3.069	0.542
906.000	538.174	79.996	19.996	102.850	19.995	2.959	0.503
906.500	538.478	79.997	19.996	102.852	19.995	2.955	0.532
907.000	538.702	79.995	19.995	102.856	19.996	2.913	0.545
907.500	538.985	79.996	19.996	102.858	19.995	2.982	0.517
908.000	539.267	79.997	19.996	102.855	19.992	3.162	0.536
908.500	539.515	79.995	19.996	102.854	19.997	2.813	0.548
909.000	539.768	79.995	19.996	102.854	19.993	3.107	0.516
909.500	540.026	79.997	19.994	102.855	19.995	2.972	0.506
910.000	540.326	79.997	19.996	102.855	19.996	2.925	0.534
910.500	540.561	79.996	19.994	102.858	19.995	2.993	0.546
911.000	540.810	79.997	19.994	102.859	19.996	2.910	0.509
911.500	541.082	79.998	19.994	102.855	19.996	2.877	0.502
912.000	541.316	79.997	19.996	102.853	19.995	3.001	0.514
912.500	541.631	79.997	19.994	102.851	19.992	3.194	0.528
913.000	541.891	79.998	19.995	102.849	19.992	3.204	0.562
913.500	542.140	79.997	19.996	102.848	19.994	3.077	0.541
914.000	542.385	79.998	19.993	102.852	19.993	3.122	0.501
914.500	542.655	79.997	19.996	102.854	19.992	3.193	0.505
915.000	542.932	79.998	19.995	102.856	19.993	3.117	0.531
915.500	543.187	79.998	19.995	102.857	19.994	3.075	0.539
916.000	543.430	79.996	19.994	102.855	19.995	3.003	0.515
916.500	543.702	79.998	19.994	102.856	19.990	3.299	0.506
917.000	543.968	79.998	19.995	102.854	19.993	3.088	0.526
917.500	544.239	79.996	19.994	102.852	19.993	3.153	0.538
918.000	544.494	79.996	19.996	102.852	19.987	3.542	0.531
918.500	544.740	79.996	19.994	102.854	19.988	3.446	0.513
919.000	544.990	79.997	19.994	102.852	19.992	3.193	0.499
919.500	545.256	79.996	19.995	102.854	19.991	3.242	0.506
920.000	545.506	79.995	19.996	102.856	19.991	3.236	0.516
920.500	545.776	79.994	19.995	102.857	19.991	3.290	0.518
921.000	546.006	79.994	19.995	102.858	19.989	3.369	0.510
921.500	546.321	79.993	19.995	102.860	19.991	3.227	0.522
922.000	546.540	79.994	19.994	102.859	19.990	3.341	0.539
922.500	546.820	79.994	19.995	102.854	19.994	3.035	0.516
923.000	547.063	79.994	19.996	102.847	19.994	3.075	0.511
923.500	547.367	79.995	19.995	102.843	19.992	3.157	0.535
924.000	547.596	79.994	19.995	102.844	19.994	3.029	0.540
924.500	547.874	79.994	19.996	102.845	19.994	3.043	0.520
925.000	548.119	79.995	19.995	102.850	19.995	2.946	0.516
925.500	548.410	79.995	19.997	102.857	19.995	2.957	0.530
926.000	548.636	79.995	19.996	102.860	19.992	3.206	0.526
926.500	548.862	79.993	19.995	102.860	19.989	3.415	0.484
927.000	549.143	79.994	19.995	102.859	19.993	3.088	0.479
927.500	549.406	79.995	19.995	102.859	19.991	3.261	0.525
928.000	549.662	79.994	19.994	102.860	19.990	3.295	0.531
928.500	549.931	79.995	19.996	102.860	19.988	3.461	0.522
929.000	550.174	79.994	19.996	102.861	19.992	3.180	0.518
929.500	550.470	79.993	19.994	102.861	19.991	3.278	0.526
930.000	550.726	79.993	19.996	102.860	19.992	3.181	0.546
930.500	550.989	79.994	19.996	102.856	19.990	3.299	0.536
931.000	551.267	79.995	19.996	102.854	19.993	3.140	0.529
931.500	551.513	79.995	19.994	102.853	19.991	3.261	0.532
932.000	551.775	79.996	19.995	102.854	19.991	3.255	0.517
932.500	552.007	79.995	19.994	102.852	19.988	3.455	0.501
933.000	552.294	79.994	19.995	102.854	19.992	3.212	0.506
933.500	552.531	79.994	19.995	102.856	19.991	3.231	0.522
934.000	552.817	79.994	19.996	102.858	19.992	3.215	0.524
934.500	553.052	79.994	19.994	102.856	19.993	3.134	0.522
935.000	553.341	79.995	19.994	102.858	19.991	3.229	0.522
935.500	553.616	79.995	19.994	102.858	19.992	3.223	0.543
936.000	553.875	79.995	19.995	102.856	19.990	3.316	0.549
936.500	554.118	79.995	19.995	102.856	19.990	3.314	0.518
937.000	554.401	79.995	19.994	102.858	19.992	3.161	0.515
937.500	554.669	79.995	19.995	102.858	19.993	3.098	0.539
938.000	554.917	79.995	19.994	102.859	19.989	3.375	0.533
938.500	555.224	79.995	19.995	102.859	19.992	3.178	0.535
939.000	555.497	79.996	19.996	102.859	19.992	3.204	0.568
939.500	555.759	79.996	19.994	102.859	19.993	3.137	0.557
940.000	555.989	79.996	19.995	102.859	19.990	3.333	0.514
940.500	556.259	79.994	19.994	102.858	19.990	3.303	0.497
941.000	556.483	79.995	19.995	102.856	19.991	3.249	0.497
941.500	556.762	79.996	19.994	102.856	19.992	3.210	0.498
942.000	556.973	79.994	19.996	102.855	19.989	3.424	0.496
942.500	557.267	79.996	19.995	102.854	19.993	3.117	0.498
943.000	557.550	79.996	19.994	102.854	19.990	3.362	0.541
943.500	557.809	79.995	19.995	102.854	19.991	3.280	0.560
944.000	558.056	79.996	19.994	102.852	19.992	3.189	0.524
944.500	558.314	79.994	19.994	102.851	19.988	3.453	0.505
945.000	558.592	79.995	19.995	102.852	19.991	3.240	0.520
945.500	558.822	79.996	19.995	102.847	19.992	3.204	0.522
946.000	559.107	79.996	19.994	102.849	19.991	3.225	0.512
946.500	559.353	79.996	19.993	102.851	19.994	3.075	0.523
947.000	559.635	79.995	19.996	102.852	19.990	3.331	0.530
947.500	559.862	79.995	19.995	102.851	19.991	3.291	0.519
948.000	560.117	79.995	19.994	102.857	19.992	3.219	0.495
948.500	560.384	79.994	19.995	102.858	19.992	3.221	0.501
949.000	560.625	79.995	19.995	102.858	19.990	3.325	0.515
949.500	560.883	79.994	19.996	102.857	19.990	3.312	0.504
950.000	561.171	79.994	19.995	102.856	19.989	3.422	0.523
950.500	561.439	79.995	19.995	102.849	19.992	3.217	0.551
951.000	561.669	79.995	19.996	102.845	19.991	3.229	0.527
951.500	561.938	79.994	19.996	102.844	19.992	3.187	0.499
952.000	562.248	79.993	19.995	102.843	19.988	3.456	0.539
952.500	562.471	79.994	19.997	102.844	19.988	3.494	0.556
953.000	562.723	79.995	19.996	102.850	19.990	3.335	0.504
953.500	562.989	79.994	19.996	102.853	19.990	3.329	0.497
954.000	563.216	79.994	19.996	102.854	19.991	3.285	0.506
954.500	563.457	79.994	19.996	102.854	19.990	3.354	0.480
955.000	563.751	79.994	19.996	102.855	19.988	3.487	0.501
955.500	563.983	79.993	19.996	102.854	19.991	3.284	0.530
956.000	564.249	79.993	19.996	102.853	19.988	3.451	0.512
956.500	564.519	79.994	19.997	102.851	19.987	3.546	0.517
957.000	564.763	79.994	19.996	102.851	19.987	3.538	0.525
957.500	565.036	79.994	19.997	102.851	19.987	3.508	0.515
958.000	565.274	79.995	19.997	102.847	19.989	3.397	0.514
958.500	565.528	79.994	19.995	102.847	19.989	3.397	0.501
959.000	565.788	79.995	19.996	102.846	19.989	3.397	0.503
959.500	566.065	79.995	19.996	102.845	19.989	3.432	0.526
960.000	566.295	79.993	19.996	102.844	19.994	3.018	0.522
960.500	566.567	79.995	19.995	102.849	19.988	3.455	0.504
961.000	566.840	79.995	19.996	102.851	19.989	3.405	0.523
961.500	567.056	79.995	19.995	102.854	19.993	3.149	0.517
962.000	567.336	79.995	19.995	102.854	19.993	3.101	0.493
962.500	567.569	79.997	19.997	102.851	19.992	3.183	0.504
963.000	567.829	79.995	19.996	102.844	19.991	3.245	0.502
963.500	568.082	79.996	19.996	102.840	19.992	3.174	0.503
964.000	568.324	79.996	19.996	102.837	19.991	3.242	0.504
964.500	568.582	79.995	19.996	102.838	19.988	3.497	0.498
965.000	568.868	79.996	19.996	102.843	19.991	3.291	0.522
965.500	569.063	79.997	19.995	102.850	19.989	3.432	0.512
966.000	569.333	79.996	19.996	102.853	19.985	3.654	0.473
966.500	569.589	79.995	19.996	102.856	19.989	3.365	0.496
967.000	569.871	79.997	19.996	102.854	19.990	3.300	0.532
967.500	570.083	79.996	19.995	102.849	19.991	3.259	0.516
968.000	570.388	79.996	19.996	102.842	19.988	3.462	0.506
968.500	570.608	79.996	19.995	102.841	19.989	3.405	0.521
969.000	570.810	79.997	19.995	102.840	19.988	3.483	0.474
969.500	571.095	79.995	19.996	102.840	19.986	3.578	0.455
970.000	571.387	79.997	19.995	102.841	19.988	3.487	0.532
970.500	571.608	79.995	19.995	102.848	19.987	3.512	0.545
971.000	571.887	79.994	19.995	102.850	19.983	3.794	0.506
971.500	572.138	79.996	19.997	102.845	19.990	3.354	0.515
972.000	572.361	79.996	19.996	102.839	19.989	3.415	0.502
972.500	572.647	79.994	19.996	102.840	19.989	3.420	0.491
973.000	572.922	79.994	19.997	102.834	19.986	3.593	0.535
973.500	573.184	79.994	19.996	102.834	19.987	3.519	0.549
974.000	573.457	79.995	19.995	102.841	19.990	3.327	0.536
974.500	573.696	79.996	19.996	102.848	19.987	3.519	0.524
975.000	573.964	79.996	19.996	102.851	19.991	3.276	0.510
975.500	574.240	79.994	19.995	102.857	19.989	3.411	0.526
976.000	574.480	79.995	19.996	102.851	19.989	3.422	0.530
976.500	574.759	79.995	19.996	102.847	19.984	3.730	0.518
977.000	574.998	79.995	19.995	102.839	19.990	3.360	0.519
977.500	575.240	79.994	19.997	102.831	19.989	3.428	0.500
978.000	575.485	79.995	19.996	102.829	19.992	3.198	0.484
978.500	575.760	79.995	19.996	102.833	19.993	3.119	0.503
979.000	576.019	79.996	19.996	102.838	19.989	3.365	0.527
979.500	576.244	79.994	19.997	102.843	19.993	3.096	0.508
980.000	576.481	79.995	19.997	102.851	19.990	3.314	0.473
980.500	576.738	79.996	19.995	102.851	19.992	3.162	0.478
981.000	577.025	79.994	19.997	102.854	19.991	3.234	0.519
981.500	577.245	79.994	19.997	102.849	19.991	3.244	0.526
982.000	577.476	79.995	19.996	102.845	19.991	3.263	0.479
982.500	577.750	79.994	19.996	102.843	19.990	3.341	0.478
983.000	578.015	79.994	19.996	102.844	19.991	3.225	0.522
983.500	578.203	79.994	19.997	102.844	19.990	3.346	0.496
984.000	578.473	79.996	19.996	102.845	19.993	3.092	0.456
984.500	578.722	79.995	19.996	102.846	19.993	3.153	0.489
985.000	578.987	79.996	19.996	102.846	19.992	3.215	0.516
985.500	579.220	79.994	19.995	102.847	19.993	3.097	0.506
986.000	579.466	79.995	19.995	102.844	19.993	3.094	0.489
986.500	579.735	79.996	19.995	102.845	19.989	3.428	0.497
987.000	579.976	79.995	19.995	102.845	19.989	3.379	0.513
987.500	580.217	79.995	19.995	102.847	19.990	3.326	0.496
988.000	580.461	79.995	19.996	102.844	19.993	3.107	0.483
988.500	580.707	79.995	19.996	102.848	19.989	3.396	0.487
989.000	580.956	79.995	19.995	102.850	19.989	3.400	0.492
989.500	581.222	79.997	19.994	102.850	19.988	3.451	0.505
990.000	581.470	79.995	19.995	102.850	19.989	3.397	0.515
990.500	581.723	79.995	19.995	102.850	19.987	3.506	0.508
991.000	581.994	79.995	19.996	102.848	19.987	3.570	0.512
991.500	582.256	79.998	19.994	102.843	19.990	3.361	0.529
992.000	582.501	79.996	19.994	102.842	19.986	3.618	0.521
992.500	582.743	79.998	19.994	102.841	19.988	3.485	0.497
993.000	583.016	79.995	19.995	102.842	19.989	3.399	0.500
993.500	583.238	79.997	19.994	102.843	19.990	3.335	0.505
994.000	583.515	79.997	19.993	102.849	19.989	3.397	0.497
994.500	583.751	79.998	19.994	102.851	19.991	3.270	0.506
995.000	583.986	79.997	19.995	102.850	19.990	3.301	0.492
995.500	584.240	79.997	19.994	102.848	19.989	3.380	0.480
996.000	584.490	79.995	19.996	102.844	19.989	3.432	0.496
996.500	584.737	79.996	19.994	102.843	19.987	3.529	0.501
997.000	584.967	79.995	19.995	102.844	19.990	3.322	0.487
997.500	585.209	79.996	19.995	102.845	19.989	3.422	0.474
998.000	585.461	79.996	19.994	102.846	19.988	3.487	0.483
998.500	585.719	79.996	19.995	102.849	19.990	3.330	0.502
999.000	585.963	79.995	19.995	102.849	19.994	3.079	0.507
999.500	586.226	79.995	19.994	102.851	19.990	3.320	0.505
1000.000	586.459	79.996	19.995	102.850	19.989	3.383	0.502
1000.500	586.693	79.994	19.995	102.847	19.990	3.327	0.482
1001.000	586.950	79.993	19.995	102.843	19.987	3.525	0.479
1001.500	587.177	79.994	19.995	102.838	19.988	3.475	0.487
1002.000	587.439	79.995	19.995	102.833	19.989	3.416	0.486
1002.500	587.663	79.993	19.994	102.834	19.987	3.566	0.487
1003.000	587.901	79.995	19.995	102.837	19.988	3.485	0.474
1003.500	588.157	79.996	19.995	102.843	19.989	3.416	0.478
1004.000	588.426	79.995	19.994	102.844	19.988	3.462	0.509
1004.500	588.681	79.993	19.995	102.846	19.986	3.610	0.524
1005.000	588.894	79.995	19.995	102.844	19.989	3.413	0.496
1005.500	589.133	79.994	19.996	102.845	19.988	3.442	0.461
1006.000	589.391	79.995	19.996	102.840	19.985	3.652	0.475
1006.500	589.648	79.995	19.995	102.839	19.987	3.538	0.506
1007.000	589.929	79.995	19.996	102.843	19.985	3.679	0.527
1007.500	590.184	79.994	19.997	102.846	19.988	3.475	0.537
1008.000	590.431	79.993	19.995	102.847	19.984	3.737	0.519
1008.500	590.696	79.995	19.996	102.852	19.987	3.563	0.506
1009.000	590.889	79.995	19.996	102.859	19.988	3.494	0.485
1009.500	591.141	79.995	19.996	102.859	19.988	3.434	0.452
1010.000	591.419	79.995	19.996	102.858	19.987	3.532	0.487
1010.500	591.681	79.993	19.995	102.854	19.986	3.595	0.535
1011.000	591.918	79.994	19.995	102.852	19.986	3.637	0.520
1011.500	592.170	79.994	19.994	102.846	19.983	3.789	0.494
1012.000	592.425	79.995	19.997	102.841	19.987	3.523	0.498
1012.500	592.659	79.995	19.995	102.839	19.987	3.523	0.498
1013.000	592.930	79.994	19.996	102.841	19.986	3.633	0.496
1013.500	593.189	79.995	19.995	102.838	19.986	3.602	0.517
1014.000	593.448	79.995	19.996	102.840	19.987	3.513	0.525
1014.500	593.705	79.995	19.996	102.840	19.987	3.551	0.518
1015.000	593.948	79.994	19.995	102.844	19.986	3.612	0.508
1015.500	594.201	79.994	19.995	102.845	19.986	3.587	0.497
1016.000	594.464	79.994	19.996	102.850	19.989	3.396	0.506
1016.500	594.680	79.996	19.995	102.854	19.986	3.591	0.498
1017.000	594.933	79.995	19.995	102.856	19.987	3.513	0.474
1017.500	595.196	79.994	19.995	102.850	19.992	3.196	0.492
1018.000	595.420	79.995	19.995	102.845	19.988	3.489	0.501
1018.500	595.665	79.996	19.995	102.844	19.987	3.534	0.478
1019.000	595.919	79.995	19.995	102.844	19.991	3.270	0.484
1019.500	596.180	79.993	19.995	102.842	19.989	3.413	0.507
1020.000	596.403	79.996	19.995	102.841	19.990	3.350	0.499
1020.500	596.675	79.995	19.995	102.841	19.991	3.270	0.490
1021.000	596.891	79.996	19.994	102.841	19.987	3.555	0.492
1021.500	597.133	79.995	19.995	102.838	19.989	3.365	0.473
1022.000	597.392	79.995	19.995	102.840	19.989	3.396	0.479
1022.500	597.660	79.994	19.995	102.842	19.987	3.540	0.513
1023.000	597.893	79.997	19.995	102.840	19.991	3.276	0.514
1023.500	598.140	79.996	19.995	102.840	19.988	3.492	0.491
1024.000	598.410	79.997	19.994	102.839	19.990	3.359	0.499
1024.500	598.646	79.995	19.996	102.834	19.990	3.355	0.512
1025.000	598.869	79.994	19.995	102.831	19.988	3.492	0.483
1025.500	599.111	79.995	19.996	102.834	19.984	3.747	0.462
1026.000	599.300	79.996	19.994	102.833	19.988	3.468	0.448
1026.501	599.589	79.994	19.995	102.835	19.987	3.565	0.455
1027.001	599.823	79.994	19.994	102.841	19.989	3.419	0.501
1027.500	600.080	79.995	19.994	102.845	19.989	3.411	0.507
1028.000	600.322	79.995	19.996	102.845	19.989	3.377	0.495
1028.500	600.559	79.995	19.996	102.845	19.989	3.394	0.489
1029.000	600.856	79.996	19.994	102.840	19.987	3.548	0.507
1029.500	601.069	79.995	19.995	102.838	19.987	3.525	0.522
1030.000	601.341	79.995	19.995	102.839	19.986	3.580	0.497
1030.500	601.560	79.996	19.994	102.841	19.984	3.743	0.487
1031.000	601.826	79.995	19.994	102.842	19.987	3.551	0.488
1031.500	602.059	79.995	19.995	102.849	19.986	3.578	0.492
1032.000	602.342	79.995	19.995	102.851	19.987	3.569	0.508
1032.500	602.582	79.994	19.994	102.851	19.986	3.578	0.520
1033.000	602.797	79.995	19.995	102.852	19.986	3.635	0.489
1033.500	603.048	79.994	19.995	102.847	19.987	3.557	0.460
1034.000	603.288	79.994	19.996	102.840	19.986	3.589	0.478
1034.500	603.537	79.995	19.995	102.836	19.984	3.747	0.490
1035.000	603.791	79.995	19.995	102.835	19.986	3.589	0.496
1035.500	604.059	79.994	19.995	102.835	19.984	3.726	0.513
1036.000	604.277	79.995	19.996	102.839	19.987	3.551	0.504
1036.500	604.515	79.994	19.996	102.847	19.985	3.707	0.471
1037.000	604.742	79.994	19.995	102.852	19.987	3.516	0.461
1037.500	605.018	79.994	19.995	102.856	19.988	3.466	0.485
1038.000	605.252	79.995	19.994	102.857	19.987	3.556	0.507
1038.500	605.493	79.996	19.995	102.856	19.984	3.725	0.493
1039.000	605.734	79.994	19.994	102.853	19.986	3.601	0.479
1039.500	606.000	79.994	19.995	102.848	19.984	3.741	0.494
1040.000	606.245	79.995	19.996	102.843	19.984	3.779	0.509
1040.501	606.501	79.993	19.995	102.837	19.987	3.539	0.506
1041.001	606.716	79.994	19.995	102.838	19.987	3.562	0.486
1041.500	606.996	79.995	19.995	102.841	19.984	3.754	0.483
1042.001	607.230	79.995	19.995	102.847	19.986	3.635	0.504
1042.501	607.444	79.995	19.996	102.849	19.986	3.578	0.481
1043.000	607.749	79.995	19.995	102.852	19.982	3.892	0.484
1043.500	607.993	79.995	19.995	102.852	19.984	3.768	0.533
1044.000	608.210	79.996	19.996	102.845	19.986	3.639	0.505
1044.500	608.493	79.995	19.996	102.840	19.987	3.518	0.481
1045.000	608.727	79.996	19.995	102.840	19.986	3.635	0.508
1045.500	608.965	79.996	19.996	102.837	19.986	3.641	0.494
1046.000	609.224	79.994	19.995	102.837	19.985	3.691	0.485
1046.500	609.439	79.997	19.996	102.842	19.987	3.535	0.485
1047.000	609.703	79.995	19.996	102.847	19.988	3.446	0.477
1047.500	609.966	79.995	19.996	102.850	19.987	3.569	0.503
1048.000	610.210	79.997	19.996	102.855	19.987	3.550	0.517
1048.500	610.430	79.996	19.995	102.856	19.987	3.514	0.485
1049.000	610.694	79.996	19.997	102.858	19.982	3.915	0.474
1049.500	610.942	79.997	19.996	102.856	19.986	3.609	0.498
1050.000	611.211	79.996	19.995	102.848	19.984	3.728	0.515
1050.500	611.456	79.997	19.994	102.843	19.986	3.609	0.515
1051.001	611.695	79.995	19.996	102.837	19.986	3.622	0.499
1051.501	611.951	79.993	19.996	102.831	19.984	3.732	0.490
1052.000	612.189	79.997	19.996	102.831	19.982	3.888	0.495
1052.501	612.416	79.997	19.995	102.838	19.981	3.985	0.480
1053.001	612.690	79.996	19.996	102.842	19.983	3.825	0.483
1053.500	612.936	79.995	19.996	102.849	19.983	3.791	0.510
1054.000	613.191	79.995	19.997	102.855	19.985	3.692	0.511
1054.500	613.424	79.996	19.994	102.858	19.986	3.613	0.495
1055.000	613.708	79.999	19.993	102.859	19.985	3.671	0.503
1055.500	613.963	79.995	19.995	102.859	19.984	3.728	0.528
1056.000	614.221	79.994	19.995	102.859	19.988	3.483	0.526
1056.501	614.459	79.993	19.996	102.859	19.987	3.571	0.504
1057.001	614.723	79.995	19.995	102.860	19.986	3.586	0.499
1057.500	614.968	79.995	19.994	102.860	19.984	3.776	0.506
1058.000	615.239	79.996	19.994	102.862	19.989	3.365	0.513
1058.500	615.498	79.995	19.994	102.862	19.985	3.645	0.523
1059.000	615.750	79.994	19.996	102.862	19.986	3.629	0.520
1059.500	615.987	79.995	19.996	102.860	19.986	3.624	0.500
1060.000	616.247	79.993	19.996	102.856	19.984	3.734	0.493
1060.500	616.510	79.996	19.994	102.855	19.985	3.681	0.510
1061.000	616.773	79.996	19.995	102.853	19.983	3.795	0.524
1061.500	617.023	79.993	19.998	102.852	19.985	3.698	0.520
1062.000	617.277	79.996	19.995	102.853	19.985	3.671	0.509
1062.500	617.543	79.995	19.996	102.857	19.984	3.740	0.512
1063.000	617.812	79.996	19.996	102.858	19.986	3.593	0.527
1063.500	618.030	79.996	19.996	102.860	19.984	3.755	0.511
1064.000	618.295	79.994	19.995	102.861	19.984	3.768	0.485
1064.500	618.508	79.995	19.996	102.862	19.985	3.680	0.481
1065.000	618.769	79.996	19.996	102.861	19.982	3.861	0.476
1065.500	619.044	79.995	19.996	102.861	19.984	3.716	0.505
1066.000	619.269	79.996	19.995	102.858	19.982	3.918	0.518
1066.500	619.562	79.996	19.995	102.858	19.984	3.764	0.509
1067.000	619.786	79.996	19.996	102.858	19.981	3.931	0.518
1067.500	620.047	79.996	19.997	102.856	19.985	3.646	0.501
1068.000	620.307	79.997	19.996	102.853	19.982	3.866	0.503
1068.500	620.557	79.997	19.996	102.852	19.985	3.690	0.516
1069.000	620.797	79.997	19.996	102.848	19.985	3.671	0.500
1069.500	621.091	79.997	19.997	102.848	19.983	3.789	0.512
1070.000	621.348	79.996	19.996	102.847	19.981	3.960	0.543
1070.500	621.601	79.997	19.995	102.849	19.984	3.723	0.530
1071.000	621.842	79.996	19.996	102.848	19.985	3.688	0.502
1071.501	622.110	79.997	19.996	102.848	19.986	3.595	0.502
1072.001	622.388	79.997	19.996	102.847	19.986	3.601	0.527
1072.500	622.602	79.997	19.996	102.849	19.983	3.791	0.519
1073.000	622.868	79.996	19.995	102.849	19.985	3.645	0.487
1073.500	623.115	79.995	19.997	102.851	19.987	3.550	0.497
1074.000	623.366	79.998	19.995	102.851	19.985	3.647	0.505
1074.500	623.615	79.997	19.995	102.845	19.987	3.508	0.499
1075.000	623.886	79.997	19.997	102.839	19.988	3.479	0.510
1075.500	624.139	79.997	19.996	102.837	19.985	3.685	0.522
1076.000	624.376	79.996	19.997	102.834	19.985	3.643	0.507
1076.500	624.618	79.996	19.996	102.834	19.982	3.863	0.485
1077.000	624.867	79.996	19.996	102.836	19.985	3.643	0.485
1077.500	625.114	79.996	19.995	102.838	19.985	3.690	0.493
1078.001	625.372	79.996	19.995	102.837	19.987	3.529	0.500
1078.501	625.650	79.996	19.996	102.837	19.980	4.004	0.521
1079.000	625.869	79.995	19.995	102.835	19.982	3.882	0.517
1079.500	626.136	79.995	19.995	102.840	19.985	3.671	0.491
1080.000	626.400	79.995	19.994	102.845	19.986	3.616	0.509
1080.500	626.640	79.995	19.996	102.848	19.984	3.758	0.518
1081.000	626.922	79.994	19.995	102.852	19.982	3.863	0.512
1081.500	627.167	79.994	19.995	102.856	19.983	3.800	0.524
1082.000	627.403	79.994	19.996	102.855	19.986	3.601	0.504
1082.500	627.714	79.995	19.996	102.852	19.983	3.817	0.514
1083.000	627.968	79.998	19.994	102.849	19.985	3.686	0.556
1083.500	628.185	79.994	19.994	102.850	19.988	3.470	0.518
1084.000	628.452	79.996	19.996	102.850	19.986	3.612	0.477
1084.500	628.704	79.995	19.995	102.849	19.985	3.682	0.501
1085.000	628.994	79.994	19.994	102.851	19.987	3.565	0.530
1085.500	629.266	79.995	19.996	102.853	19.985	3.695	0.552
1086.000	629.497	79.996	19.995	102.853	19.989	3.399	0.533
1086.500	629.733	79.995	19.995	102.854	19.988	3.496	0.485
1087.000	630.021	79.993	19.995	102.857	19.985	3.696	0.496
1087.500	630.264	79.995	19.995	102.856	19.985	3.643	0.527
1088.000	630.522	79.995	19.995	102.856	19.985	3.692	0.516
1088.500	630.797	79.995	19.996	102.855	19.987	3.525	0.517
1089.000	631.049	79.993	19.996	102.854	19.984	3.780	0.530
1089.501	631.316	79.994	19.995	102.851	19.983	3.831	0.523
1090.001	631.530	79.996	19.994	102.847	19.983	3.789	0.500
1090.500	631.816	79.996	19.996	102.848	19.985	3.651	0.491
1091.001	632.058	79.994	19.994	102.848	19.983	3.816	0.514
1091.501	632.339	79.995	19.994	102.846	19.984	3.759	0.525
1092.000	632.562	79.995	19.996	102.846	19.984	3.770	0.513
1092.500	632.817	79.994	19.995	102.852	19.985	3.664	0.491
1093.000	633.088	79.995	19.995	102.849	19.985	3.662	0.502
1093.500	633.383	79.996	19.995	102.849	19.985	3.707	0.546
1094.000	633.587	79.994	19.996	102.853	19.985	3.700	0.533
1094.500	633.835	79.996	19.996	102.851	19.987	3.518	0.476
1095.000	634.130	79.995	19.996	102.846	19.986	3.609	0.497
1095.500	634.384	79.994	19.997	102.844	19.986	3.626	0.546
1096.000	634.645	79.995	19.994	102.842	19.985	3.708	0.532
1096.500	634.913	79.996	19.996	102.838	19.982	3.901	0.522
1097.000	635.150	79.994	19.996	102.838	19.986	3.592	0.517
1097.500	635.431	79.995	19.997	102.842	19.984	3.738	0.512
1098.000	635.701	79.995	19.994	102.845	19.983	3.839	0.535
1098.500	635.982	79.996	19.995	102.847	19.982	3.911	0.551
1099.000	636.228	79.995	19.995	102.850	19.985	3.692	0.539
1099.500	636.470	79.994	19.995	102.854	19.984	3.770	0.508
1100.000	636.724	79.995	19.995	102.854	19.983	3.844	0.492
1100.500	636.977	79.995	19.995	102.856	19.986	3.626	0.501
1101.000	637.210	79.995	19.995	102.857	19.983	3.842	0.497
1101.500	637.488	79.995	19.995	102.857	19.985	3.684	0.499
1102.000	637.744	79.994	19.995	102.857	19.984	3.779	0.522
1102.500	637.991	79.994	19.996	102.859	19.980	4.040	0.518
1103.000	638.264	79.994	19.995	102.859	19.981	3.930	0.512
1103.500	638.488	79.995	19.995	102.858	19.981	3.934	0.508
1104.000	638.774	79.993	19.994	102.856	19.985	3.654	0.503
1104.500	639.027	79.995	19.995	102.855	19.982	3.888	0.525
1105.000	639.288	79.995	19.994	102.855	19.982	3.870	0.527
1105.501	639.550	79.994	19.994	102.855	19.983	3.798	0.519
1106.001	639.798	79.994	19.995	102.855	19.984	3.728	0.517
1106.500	640.065	79.995	19.995	102.858	19.985	3.694	0.512
1107.000	640.317	79.994	19.995	102.860	19.981	3.943	0.517
1107.500	640.596	79.994	19.995	102.860	19.985	3.704	0.525
1108.000	640.845	79.995	19.995	102.860	19.984	3.768	0.529
1108.500	641.119	79.994	19.995	102.861	19.983	3.800	0.525
1109.000	641.374	79.994	19.995	102.861	19.985	3.687	0.526
1109.500	641.612	79.994	19.995	102.861	19.984	3.711	0.511
1110.000	641.880	79.994	19.994	102.860	19.984	3.755	0.500
1110.500	642.149	79.995	19.996	102.860	19.984	3.719	0.522
1111.000	642.370	79.994	19.996	102.856	19.987	3.544	0.514
1111.500	642.646	79.993	19.995	102.851	19.986	3.591	0.493
1112.000	642.895	79.995	19.995	102.849	19.982	3.855	0.511
1112.500	643.155	79.994	19.994	102.849	19.983	3.846	0.517
1113.000	643.383	79.994	19.995	102.850	19.986	3.586	0.499
1113.500	643.645	79.994	19.995	102.854	19.986	3.609	0.490
1114.000	643.921	79.994	19.994	102.860	19.986	3.618	0.514
1114.500	644.169	79.992	19.995	102.857	19.986	3.573	0.531
1115.000	644.456	79.994	19.995	102.850	19.983	3.831	0.529
1115.500	644.667	79.993	19.993	102.846	19.985	3.702	0.516
1116.000	644.922	79.994	19.995	102.846	19.985	3.689	0.482
1116.500	645.145	79.994	19.994	102.846	19.985	3.666	0.472
1117.000	645.424	79.993	19.995	102.850	19.986	3.628	0.491
1117.500	645.709	79.993	19.995	102.851	19.985	3.696	0.533
1118.000	645.915	79.994	19.995	102.853	19.986	3.609	0.527
1118.501	646.176	79.994	19.995	102.851	19.985	3.662	0.479
1119.001	646.430	79.992	19.996	102.850	19.983	3.836	0.491
1119.500	646.705	79.993	19.996	102.850	19.984	3.715	0.522
1120.000	646.961	79.992	19.996	102.856	19.987	3.567	0.530
1120.500	647.210	79.994	19.995	102.858	19.983	3.806	0.518
1121.000	647.467	79.995	19.994	102.855	19.984	3.774	0.505
1121.501	647.742	79.994	19.995	102.856	19.983	3.823	0.519
1122.001	647.992	79.995	19.994	102.854	19.985	3.673	0.529
1122.500	648.284	79.995	19.994	102.851	19.986	3.597	0.533
1123.000	648.478	79.994	19.995	102.851	19.986	3.635	0.514
1123.500	648.761	79.995	19.994	102.854	19.983	3.810	0.482
1124.000	648.976	79.995	19.995	102.854	19.983	3.816	0.488
1124.500	649.250	79.996	19.994	102.856	19.986	3.614	0.493
1125.000	649.477	79.995	19.994	102.859	19.982	3.861	0.495
1125.501	649.770	79.996	19.995	102.859	19.982	3.874	0.511
1126.001	650.009	79.996	19.995	102.860	19.983	3.796	0.526
1126.500	650.247	79.996	19.995	102.861	19.983	3.781	0.505
1127.000	650.532	79.997	19.995	102.862	19.984	3.734	0.500
1127.500	650.799	79.996	19.995	102.859	19.983	3.806	0.537
1128.000	651.049	79.997	19.996	102.858	19.985	3.673	0.535
1128.500	651.274	79.997	19.995	102.857	19.981	3.960	0.496
1129.000	651.550	79.996	19.995	102.853	19.989	3.421	0.488
1129.500	651.768	79.995	19.995	102.849	19.981	3.951	0.497
1130.000	652.040	79.995	19.995	102.849	19.983	3.800	0.492
1130.500	652.284	79.997	19.995	102.846	19.983	3.838	0.503
1131.000	652.566	79.995	19.995	102.844	19.983	3.793	0.522
1131.500	652.790	79.996	19.996	102.844	19.982	3.869	0.516
1132.000	653.034	79.995	19.996	102.847	19.982	3.892	0.487
1132.500	653.294	79.996	19.995	102.848	19.981	3.948	0.486
1133.000	653.549	79.996	19.994	102.850	19.981	3.926	0.510
1133.500	653.792	79.995	19.996	102.853	19.979	4.079	0.506
1134.000	654.031	79.996	19.997	102.855	19.979	4.098	0.490
1134.500	654.325	79.995	19.996	102.854	19.979	4.066	0.507
1135.000	654.556	79.996	19.994	102.854	19.979	4.106	0.529
1135.500	654.803	79.995	19.995	102.852	19.981	3.962	0.502
1136.000	655.050	79.995	19.995	102.849	19.981	3.979	0.486
1136.500	655.316	79.994	19.996	102.847	19.977	4.246	0.503
1137.000	655.556	79.996	19.996	102.847	19.981	3.969	0.509
1137.500	655.799	79.993	19.995	102.846	19.977	4.260	0.495
1138.000	656.041	79.999	19.993	102.845	19.979	4.060	0.485
1138.500	656.271	79.995	19.996	102.849	19.981	3.950	0.479
1139.000	656.530	79.995	19.994	102.850	19.979	4.068	0.480
1139.500	656.770	79.993	19.998	102.852	19.981	3.954	0.494
1140.000	657.032	79.994	19.995	102.853	19.981	3.976	0.501
1140.500	657.260	79.994	19.996	102.854	19.979	4.090	0.496
1141.000	657.522	79.993	19.994	102.852	19.980	4.048	0.489
1141.500	657.786	79.996	19.996	102.853	19.981	3.966	0.508
1142.000	658.044	79.995	19.995	102.852	19.977	4.229	0.524
1142.501	658.254	79.994	19.996	102.853	19.980	4.030	0.495
1143.001	658.507	79.996	19.996	102.851	19.977	4.212	0.465
1143.500	658.758	79.994	19.997	102.849	19.979	4.098	0.483
1144.000	658.993	79.995	19.995	102.847	19.979	4.072	0.495
1144.501	659.220	79.995	19.995	102.848	19.982	3.918	0.474
1145.001	659.494	79.996	19.995	102.847	19.982	3.914	0.482
1145.501	659.715	79.995	19.996	102.851	19.982	3.889	0.498
1146.001	659.985	79.996	19.995	102.851	19.979	4.077	0.493
1146.500	660.224	79.995	19.995	102.852	19.977	4.254	0.500
1147.000	660.444	79.995	19.995	102.848	19.976	4.313	0.484
1147.500	660.718	79.996	19.995	102.844	19.978	4.159	0.477
1148.000	660.924	79.996	19.995	102.843	19.981	3.971	0.487
1148.500	661.194	79.998	19.994	102.846	19.977	4.225	0.478
1149.000	661.464	79.997	19.995	102.845	19.980	3.992	0.508
1149.500	661.703	79.997	19.994	102.846	19.977	4.248	0.525
1150.000	661.936	79.996	19.995	102.846	19.979	4.117	0.491
1150.500	662.172	79.996	19.994	102.840	19.980	3.996	0.470
1151.001	662.456	79.997	19.995	102.833	19.979	4.070	0.494
1151.501	662.680	79.996	19.995	102.827	19.978	4.140	0.514
1152.001	662.968	79.997	19.994	102.823	19.978	4.150	0.510
1152.501	663.148	79.996	19.994	102.823	19.977	4.230	0.490
1153.000	663.419	79.996	19.996	102.825	19.979	4.102	0.460
1153.500	663.671	79.997	19.996	102.835	19.978	4.165	0.487
1154.001	663.947	79.996	19.995	102.843	19.976	4.270	0.525
1154.501	664.204	79.997	19.996	102.848	19.978	4.188	0.531
1155.000	664.434	79.998	19.996	102.850	19.980	4.038	0.510
1155.500	664.664	79.995	19.995	102.847	19.981	3.956	0.474
1156.000	664.925	79.996	19.995	102.842	19.979	4.089	0.475
1156.500	665.216	79.996	19.997	102.840	19.977	4.243	0.521
1157.000	665.450	79.995	19.997	102.841	19.976	4.273	0.539
1157.500	665.687	79.996	19.996	102.842	19.979	4.083	0.498
1158.000	665.926	79.996	19.995	102.845	19.978	4.172	0.473
1158.500	666.158	79.994	19.996	102.848	19.979	4.102	0.473
1159.000	666.436	79.997	19.997	102.845	19.976	4.296	0.490
1159.500	666.679	79.996	19.996	102.843	19.976	4.311	0.515
1160.000	666.921	79.996	19.996	102.844	19.977	4.206	0.503
1160.500	667.185	79.994	19.997	102.847	19.980	4.028	0.495
1161.000	667.389	79.994	19.997	102.846	19.975	4.402	0.487
1161.500	667.683	79.992	19.997	102.850	19.980	4.042	0.483
1162.001	667.847	79.992	19.997	102.853	19.978	4.194	0.478
1162.501	668.230	79.994	19.996	102.854	19.978	4.184	0.503
1163.000	668.416	79.993	19.997	102.851	19.979	4.123	0.558
1163.500	668.651	79.994	19.996	102.852	19.975	4.374	0.495
1164.000	668.928	79.994	19.997	102.852	19.979	4.106	0.466
1164.500	669.180	79.994	19.997	102.853	19.977	4.213	0.520
1165.000	669.442	79.994	19.996	102.854	19.978	4.163	0.522
1165.500	669.677	79.993	19.998	102.853	19.977	4.205	0.506
1166.000	669.936	79.991	19.997	102.851	19.978	4.178	0.496
1166.500	670.207	79.992	19.999	102.851	19.980	4.055	0.512
1167.000	670.465	79.994	19.996	102.849	19.977	4.207	0.529
1167.500	670.717	79.993	19.994	102.844	19.977	4.220	0.519
1168.000	670.958	79.993	19.997	102.846	19.978	4.148	0.501
1168.500	671.224	79.993	19.995	102.847	19.977	4.258	0.500
1169.000	671.455	79.995	19.995	102.843	19.979	4.122	0.502
1169.500	671.722	79.994	19.996	102.844	19.977	4.245	0.497
1170.000	672.011	79.993	19.994	102.844	19.976	4.289	0.526
1170.500	672.222	79.993	19.996	102.843	19.978	4.156	0.528
1171.000	672.460	79.994	19.995	102.843	19.975	4.344	0.475
1171.500	672.724	79.994	19.994	102.846	19.975	4.393	0.476
1172.000	672.984	79.993	19.997	102.848	19.976	4.287	0.513
1172.500	673.237	79.996	19.994	102.852	19.977	4.241	0.518
1173.000	673.492	79.994	19.996	102.853	19.976	4.290	0.511
1173.500	673.700	79.996	19.991	102.855	19.974	4.444	0.485
1174.000	673.943	79.995	19.995	102.855	19.976	4.334	0.457
1174.500	674.242	79.995	19.995	102.853	19.977	4.249	0.497
1175.000	674.462	79.996	19.995	102.855	19.973	4.515	0.530
1175.500	674.763	79.995	19.996	102.857	19.982	3.915	0.520
1176.000	675.030	79.994	19.994	102.855	19.976	4.277	0.545
1176.500	675.246	79.994	19.995	102.853	19.972	4.572	0.526
1177.000	675.529	79.994	19.996	102.853	19.972	4.615	0.491
1177.500	675.771	79.993	19.994	102.853	19.971	4.640	0.511
1178.000	676.020	79.995	19.995	102.852	19.975	4.344	0.508
1178.500	676.281	79.995	19.995	102.852	19.972	4.609	0.501
1179.000	676.531	79.994	19.995	102.856	19.973	4.490	0.511
1179.500	676.785	79.994	19.995	102.859	19.973	4.529	0.507
1180.000	677.058	79.994	19.996	102.858	19.974	4.408	0.515
1180.500	677.301	79.993	19.996	102.855	19.974	4.412	0.521
1181.000	677.540	79.994	19.996	102.856	19.970	4.697	0.499
1181.500	677.824	79.992	19.996	102.856	19.973	4.486	0.503
1182.000	678.093	79.994	19.997	102.854	19.974	4.473	0.538
1182.500	678.353	79.993	19.994	102.853	19.975	4.366	0.541
1183.000	678.557	79.996	19.996	102.853	19.973	4.524	0.496
1183.500	678.814	79.993	19.998	102.853	19.971	4.668	0.462
1184.000	679.066	79.994	19.995	102.851	19.970	4.687	0.485
1184.500	679.346	79.994	19.996	102.853	19.976	4.275	0.520
1185.000	679.586	79.996	19.995	102.854	19.978	4.190	0.526
1185.500	679.841	79.994	19.994	102.855	19.972	4.585	0.508
1186.000	680.092	79.994	19.996	102.855	19.974	4.441	0.501
1186.500	680.370	79.993	19.993	102.856	19.975	4.346	0.518
1187.000	680.594	79.993	19.998	102.855	19.975	4.374	0.515
1187.500	680.857	79.995	19.997	102.854	19.972	4.555	0.494
1188.000	681.116	79.993	19.994	102.856	19.973	4.541	0.504
1188.500	681.334	79.995	19.993	102.858	19.975	4.344	0.500
1189.000	681.617	79.991	19.994	102.857	19.977	4.201	0.490
1189.501	681.875	79.991	19.996	102.852	19.977	4.243	0.521
1190.001	682.106	79.994	19.995	102.848	19.976	4.271	0.515
1190.501	682.371	79.993	19.995	102.844	19.975	4.397	0.492
1191.000	682.630	79.992	19.997	102.840	19.974	4.461	0.510
1191.500	683.002	79.992	19.996	102.842	19.976	4.319	0.577
1192.000	683.126	79.993	19.996	102.847	19.977	4.267	0.563
1192.500	683.441	79.993	19.997	102.849	19.973	4.493	0.468
1193.000	683.630	79.995	19.995	102.851	19.973	4.516	0.472
1193.500	683.918	79.993	19.996	102.854	19.973	4.486	0.491
1194.000	684.167	79.994	19.996	102.853	19.975	4.385	0.507
1194.500	684.389	79.993	19.996	102.852	19.972	4.572	0.504
1195.000	684.695	79.993	19.994	102.854	19.977	4.253	0.500
1195.500	684.944	79.993	19.995	102.856	19.974	4.469	0.542
1196.000	685.219	79.988	20.001	102.856	19.975	4.353	0.539
1196.500	685.445	79.993	19.995	102.856	19.975	4.351	0.512
1197.000	685.726	79.995	19.993	102.855	19.974	4.431	0.504
1197.500	685.994	79.995	19.994	102.855	19.977	4.236	0.528
1198.000	686.209	79.994	19.996	102.855	19.976	4.293	0.516
1198.500	686.521	79.995	19.995	102.855	19.973	4.530	0.505
1199.000	686.774	79.996	19.996	102.853	19.974	4.410	0.546
1199.500	687.042	79.995	19.992	102.853	19.974	4.465	0.543
1200.000	687.276	79.995	19.994	102.849	19.971	4.674	0.511
1200.500	687.546	79.994	19.998	102.848	19.973	4.526	0.503
1201.000	687.776	79.996	19.995	102.847	19.974	4.435	0.502
1201.500	688.046	79.994	19.996	102.847	19.976	4.302	0.500
1202.000	688.268	79.995	19.996	102.847	19.975	4.391	0.496
1202.500	688.573	79.996	19.993	102.846	19.975	4.380	0.509
1203.000	688.830	79.996	19.995	102.846	19.972	4.557	0.544
1203.500	689.038	79.996	19.994	102.847	19.977	4.201	0.513
1204.000	689.345	79.995	19.997	102.850	19.975	4.404	0.490
1204.500	689.600	79.996	19.993	102.851	19.977	4.241	0.539
1205.000	689.829	79.993	19.994	102.854	19.973	4.505	0.523
1205.500	690.097	79.994	19.996	102.853	19.973	4.525	0.490
1206.000	690.342	79.997	19.995	102.854	19.974	4.434	0.505
1206.500	690.593	79.994	19.994	102.854	19.973	4.540	0.505
1207.000	690.803	79.997	19.996	102.855	19.973	4.523	0.478
1207.501	691.116	79.996	19.996	102.856	19.971	4.632	0.492
1208.001	691.355	79.997	19.996	102.857	19.973	4.486	0.537
1208.500	691.633	79.996	19.995	102.857	19.973	4.525	0.535
1209.000	691.873	79.998	19.994	102.857	19.972	4.581	0.518
1209.500	692.133	79.998	19.995	102.858	19.975	4.366	0.509
1210.000	692.382	79.997	19.996	102.858	19.973	4.504	0.504
1210.500	692.659	79.996	19.994	102.857	19.972	4.590	0.518
1211.000	692.920	79.995	19.996	102.857	19.974	4.449	0.532
1211.500	693.211	79.997	19.995	102.856	19.973	4.542	0.545
1212.000	693.412	79.995	19.996	102.855	19.972	4.567	0.522
1212.500	693.712	79.995	19.994	102.855	19.973	4.510	0.496
1213.000	693.948	79.994	19.997	102.856	19.974	4.425	0.518
1213.500	694.159	79.995	19.994	102.857	19.974	4.461	0.491
1214.000	694.452	79.997	19.995	102.857	19.973	4.532	0.476
1214.500	694.665	79.994	19.995	102.852	19.975	4.382	0.506
1215.000	694.988	79.994	19.994	102.851	19.975	4.404	0.521
1215.500	695.220	79.997	19.994	102.848	19.976	4.319	0.545
1216.000	695.504	79.994	19.999	102.841	19.973	4.507	0.535
1216.500	695.732	79.993	19.995	102.838	19.973	4.503	0.514
1217.000	695.991	79.996	19.995	102.840	19.973	4.537	0.500
1217.500	696.260	79.995	19.995	102.837	19.972	4.588	0.508
1218.000	696.488	79.996	19.995	102.839	19.977	4.214	0.512
1218.500	696.786	79.996	19.996	102.845	19.975	4.385	0.511
1219.000	697.016	79.995	19.995	102.844	19.974	4.414	0.527
1219.500	697.275	79.993	19.994	102.841	19.970	4.691	0.508
1220.000	697.488	79.996	19.993	102.843	19.973	4.511	0.481
1220.501	697.774	79.999	19.993	102.840	19.972	4.579	0.486
1221.001	698.015	79.994	19.997	102.837	19.973	4.493	0.513
1221.501	698.298	79.996	19.997	102.839	19.974	4.453	0.526
1222.000	698.518	79.996	19.996	102.839	19.971	4.617	0.513
1222.500	698.772	79.996	19.991	102.835	19.970	4.738	0.488
1223.000	699.016	79.993	20.001	102.836	19.972	4.559	0.486
1223.500	699.305	79.994	19.998	102.839	19.970	4.711	0.515
1224.000	699.525	79.993	19.997	102.839	19.971	4.645	0.521
1224.500	699.799	79.996	19.996	102.844	19.973	4.491	0.502
1225.000	700.036	79.994	19.997	102.850	19.970	4.706	0.503
1225.500	700.333	79.996	19.996	102.852	19.973	4.539	0.522
1226.000	700.587	79.994	19.996	102.852	19.969	4.765	0.542
1226.500	700.831	79.996	19.996	102.851	19.969	4.765	0.524
1227.000	701.096	79.996	19.996	102.850	19.969	4.784	0.503
1227.500	701.319	79.995	19.996	102.849	19.970	4.706	0.499
1228.000	701.619	79.996	19.995	102.848	19.973	4.505	0.506
1228.500	701.842	79.995	19.994	102.848	19.972	4.570	0.523
1229.000	702.120	79.996	19.996	102.851	19.972	4.587	0.512
1229.500	702.359	79.995	19.997	102.852	19.974	4.446	0.509
1230.000	702.622	79.999	19.996	102.851	19.972	4.602	0.509
1230.500	702.851	79.997	19.991	102.846	19.967	4.934	0.497
1231.000	703.119	79.996	19.988	102.847	19.970	4.714	0.495
1231.501	703.366	79.995	19.993	102.846	19.965	5.055	0.506
1232.001	703.636	79.996	19.994	102.847	19.968	4.854	0.515
1232.500	703.903	79.998	19.993	102.844	19.968	4.856	0.527
1233.000	704.136	79.999	19.996	102.846	19.969	4.761	0.519
1233.500	704.369	79.997	19.995	102.839	19.963	5.207	0.483
1234.000	704.627	79.998	19.997	102.835	19.966	5.008	0.478
1234.500	704.877	79.994	19.995	102.831	19.968	4.852	0.499
1235.000	705.111	79.992	19.996	102.835	19.971	4.636	0.496
1235.500	705.379	79.996	19.999	102.839	19.968	4.851	0.493
1236.000	705.653	80.000	19.995	102.844	19.968	4.849	0.522
1236.500	705.898	79.993	19.991	102.847	19.966	4.971	0.530
1237.000	706.129	79.997	19.992	102.846	19.967	4.940	0.497
1237.501	706.367	79.998	19.993	102.842	19.969	4.767	0.473
1238.001	706.646	80.000	19.993	102.842	19.971	4.630	0.494
1238.501	706.881	79.999	19.994	102.844	19.966	5.015	0.516
1239.001	707.123	79.996	19.993	102.847	19.970	4.717	0.496
1239.500	707.377	79.995	19.996	102.851	19.969	4.806	0.487
1240.000	707.621	79.995	19.994	102.856	19.968	4.871	0.497
1240.500	707.915	79.995	19.993	102.857	19.968	4.865	0.518
1241.000	708.146	79.995	19.995	102.858	19.969	4.793	0.531
1241.500	708.392	79.994	19.994	102.856	19.969	4.820	0.500
1242.000	708.636	79.998	19.996	102.853	19.967	4.900	0.483
1242.500	708.884	79.994	19.993	102.845	19.967	4.958	0.491
1243.000	709.191	79.995	19.991	102.838	19.964	5.143	0.524
1243.500	709.401	79.998	19.993	102.834	19.969	4.805	0.536
1244.000	709.665	79.994	19.996	102.832	19.968	4.843	0.495
1244.500	709.894	79.995	19.993	102.833	19.967	4.919	0.483
1245.000	710.141	79.994	19.994	102.839	19.965	5.088	0.484
1245.500	710.374	79.989	19.993	102.844	19.967	4.950	0.478
1246.000	710.636	79.996	19.996	102.848	19.967	4.899	0.487
1246.500	710.854	79.996	19.997	102.852	19.965	5.052	0.487
1247.000	711.155	79.993	19.997	102.856	19.966	4.993	0.500
1247.500	711.367	79.988	19.998	102.858	19.964	5.121	0.516
1248.000	711.652	79.985	20.001	102.857	19.965	5.058	0.505
1248.500	711.952	79.991	19.991	102.850	19.966	4.980	0.541
1249.000	712.208	79.996	19.996	102.846	19.970	4.727	0.571
1249.500	712.423	79.990	19.997	102.841	19.968	4.879	0.514
1250.000	712.668	79.994	19.995	102.837	19.966	4.991	0.465
1250.500	712.924	79.990	20.000	102.836	19.963	5.181	0.480
1251.001	713.212	79.991	19.999	102.841	19.967	4.961	0.523
1251.501	713.437	79.992	19.996	102.843	19.968	4.887	0.529
1252.000	713.700	79.995	19.997	102.845	19.970	4.745	0.500
1252.500	713.959	79.991	19.996	102.842	19.968	4.857	0.505
1253.000	714.229	79.993	19.997	102.842	19.969	4.756	0.525
1253.500	714.469	79.994	19.995	102.841	19.971	4.666	0.520
1254.000	714.744	79.988	19.997	102.840	19.965	5.078	0.513
1254.500	715.003	79.993	19.999	102.843	19.965	5.075	0.524
1255.000	715.252	79.998	19.995	102.849	19.966	5.020	0.521
1255.500	715.490	79.989	20.000	102.855	19.967	4.906	0.497
1256.000	715.743	79.994	19.993	102.855	19.969	4.760	0.489
1256.500	715.992	79.994	19.991	102.857	19.967	4.963	0.496
1257.000	716.240	79.992	19.997	102.859	19.969	4.794	0.500
1257.500	716.525	79.992	19.995	102.858	19.969	4.786	0.515
1258.000	716.798	79.994	19.996	102.856	19.970	4.729	0.545
1258.500	717.004	79.998	19.995	102.856	19.970	4.718	0.519
1259.000	717.262	79.995	19.994	102.852	19.971	4.630	0.471
1259.500	717.510	79.997	19.994	102.847	19.970	4.731	0.485
1260.000	717.765	79.992	19.997	102.848	19.969	4.792	0.504
1260.501	718.023	79.995	19.996	102.844	19.972	4.566	0.509
1261.001	718.294	79.995	19.992	102.845	19.971	4.670	0.521
1261.500	718.478	79.995	19.993	102.849	19.969	4.818	0.492
1262.000	718.801	79.996	19.993	102.851	19.969	4.818	0.481
1262.500	719.001	79.997	19.992	102.852	19.967	4.942	0.515
1263.000	719.229	80.000	19.995	102.857	19.968	4.850	0.475
1263.500	719.516	79.995	19.993	102.856	19.968	4.860	0.471
1264.000	719.731	79.996	19.991	102.851	19.968	4.860	0.508
1264.500	720.017	79.993	19.997	102.849	19.970	4.740	0.501
1265.000	720.243	79.994	19.997	102.848	19.967	4.905	0.506
1265.500	720.470	79.993	19.996	102.847	19.966	4.973	0.483
1266.000	720.767	79.995	19.993	102.847	19.967	4.928	0.489
1266.500	720.986	79.996	19.999	102.851	19.966	4.979	0.520
1267.000	721.230	79.998	19.997	102.853	19.967	4.945	0.489
1267.500	721.467	79.994	19.993	102.854	19.969	4.801	0.472
1268.000	721.595	79.993	19.997	102.853	19.969	4.793	0.423
1268.500	721.898	79.992	19.997	102.852	19.967	4.962	0.398
1269.000	722.155	79.992	19.996	102.851	19.968	4.829	0.496
1269.500	722.493	79.993	19.997	102.849	19.965	5.088	0.577
1270.000	722.715	79.997	19.998	102.849	19.967	4.913	0.577
1270.500	722.963	79.995	19.995	102.849	19.965	5.052	0.515
1271.000	723.215	79.994	19.997	102.851	19.965	5.069	0.485
1271.500	723.465	79.992	19.997	102.852	19.966	4.966	0.501
1272.000	723.690	79.997	19.994	102.852	19.967	4.951	0.489
1272.500	723.929	79.989	19.999	102.850	19.969	4.813	0.469
1273.000	724.182	79.990	20.000	102.850	19.968	4.891	0.478
1273.500	724.428	79.995	19.997	102.847	19.971	4.647	0.496
1274.000	724.688	79.989	20.001	102.845	19.967	4.928	0.503
1274.501	724.921	79.990	19.996	102.843	19.966	5.002	0.500
1275.001	725.158	79.990	20.002	102.842	19.965	5.040	0.482
1275.501	725.412	79.997	19.993	102.837	19.966	5.010	0.481
1276.000	725.638	79.993	19.995	102.836	19.964	5.103	0.485
1276.500	725.908	79.991	19.998	102.835	19.963	5.200	0.487
1277.000	726.106	79.989	19.995	102.838	19.964	5.108	0.482
1277.500	726.375	79.998	19.989	102.840	19.965	5.036	0.468
1278.000	726.653	79.996	19.991	102.843	19.963	5.192	0.507
1278.501	726.886	79.996	19.991	102.841	19.963	5.177	0.529
1279.001	727.106	79.994	19.997	102.839	19.964	5.156	0.482
1279.500	727.338	79.993	19.994	102.839	19.964	5.167	0.453
1280.000	727.584	79.991	19.996	102.840	19.963	5.232	0.465
1280.500	727.845	79.992	19.995	102.844	19.964	5.149	0.492
1281.000	728.095	79.991	19.997	102.846	19.963	5.177	0.508
1281.501	728.300	79.995	19.996	102.848	19.964	5.105	0.483
1282.001	728.604	79.994	19.997	102.850	19.963	5.227	0.482
1282.500	728.801	79.991	20.001	102.848	19.967	4.902	0.505
1283.000	729.066	79.995	19.992	102.847	19.968	4.877	0.481
1283.500	729.269	79.995	19.997	102.852	19.968	4.841	0.465
1284.000	729.521	79.995	19.996	102.854	19.968	4.870	0.462
1284.500	729.777	79.994	19.992	102.849	19.964	5.158	0.482
1285.000	730.013	79.989	20.004	102.848	19.966	4.983	0.500
1285.500	730.261	79.998	19.994	102.845	19.964	5.165	0.488
1286.000	730.522	79.994	19.995	102.841	19.963	5.228	0.496
1286.500	730.765	79.996	19.992	102.839	19.964	5.142	0.507
1287.000	731.020	79.998	19.996	102.839	19.965	5.097	0.501
1287.500	731.270	79.995	19.999	102.839	19.965	5.076	0.501
1288.000	731.505	80.002	19.991	102.841	19.967	4.956	0.495
1288.500	731.748	80.000	19.991	102.841	19.966	5.015	0.482
1289.000	731.957	79.995	19.996	102.844	19.963	5.219	0.465
1289.500	732.241	79.993	19.996	102.842	19.965	5.067	0.472
1290.000	732.455	79.997	19.994	102.844	19.964	5.143	0.495
1290.500	732.709	79.996	19.992	102.844	19.966	4.964	0.483
1291.000	732.921	79.995	19.996	102.846	19.967	4.907	0.467
1291.500	733.167	79.996	19.994	102.845	19.968	4.856	0.462
1292.000	733.427	79.995	19.992	102.847	19.961	5.331	0.482
1292.500	733.633	79.993	19.996	102.846	19.963	5.194	0.486
1293.000	733.897	79.996	19.995	102.848	19.964	5.155	0.468
1293.500	734.135	79.994	19.992	102.848	19.962	5.294	0.486
1294.000	734.398	79.991	19.994	102.851	19.963	5.178	0.502
1294.500	734.603	79.995	19.997	102.854	19.965	5.087	0.485
1295.000	734.845	79.994	19.995	102.854	19.961	5.379	0.457
1295.500	735.054	79.995	19.996	102.850	19.962	5.244	0.448
1296.000	735.371	79.992	19.991	102.844	19.961	5.356	0.488
1296.500	735.600	79.994	20.001	102.836	19.963	5.231	0.536
1297.000	735.860	80.001	19.993	102.830	19.961	5.365	0.518
1297.501	736.093	80.000	19.994	102.831	19.963	5.230	0.491
1298.001	736.310	79.992	19.998	102.833	19.961	5.316	0.472
1298.500	736.560	79.994	19.997	102.834	19.963	5.177	0.459
1299.000	736.835	79.998	19.996	102.837	19.964	5.166	0.496
1299.500	737.040	79.995	19.993	102.842	19.965	5.095	0.502
1300.000	737.269	79.995	19.996	102.844	19.964	5.154	0.457
1300.500	737.500	79.995	19.994	102.846	19.965	5.099	0.447
1301.000	737.796	79.995	19.994	102.847	19.964	5.170	0.493
1301.500	737.993	79.993	20.000	102.848	19.965	5.082	0.510
1302.000	738.243	79.996	19.996	102.848	19.962	5.292	0.470
1302.500	738.494	79.997	19.999	102.845	19.966	4.995	0.474
1303.000	738.733	79.996	19.992	102.845	19.964	5.134	0.496
1303.500	738.992	79.998	19.991	102.848	19.961	5.373	0.494
1304.000	739.223	79.997	19.993	102.853	19.963	5.221	0.494
1304.500	739.478	79.991	19.999	102.857	19.967	4.927	0.488
1305.000	739.745	79.999	19.988	102.859	19.964	5.153	0.504
1305.500	739.970	79.997	19.997	102.862	19.966	4.995	0.507
1306.000	740.191	79.994	19.998	102.860	19.964	5.140	0.469
1306.500	740.450	79.993	19.994	102.857	19.965	5.060	0.463
1307.000	740.728	79.994	19.999	102.854	19.965	5.068	0.509
1307.500	740.930	79.997	19.992	102.853	19.961	5.353	0.509
1308.000	741.198	79.997	19.993	102.850	19.964	5.165	0.475
1308.500	741.455	79.997	19.995	102.848	19.960	5.387	0.498
1309.000	741.707	79.997	19.992	102.848	19.961	5.368	0.517
1309.501	741.927	79.995	19.992	102.847	19.963	5.180	0.490
1310.001	742.193	79.991	20.000	102.846	19.964	5.136	0.479
1310.500	742.469	79.998	19.997	102.842	19.960	5.390	0.514
1311.000	742.696	79.996	19.991	102.845	19.961	5.356	0.523
1311.500	742.924	79.998	19.993	102.845	19.961	5.373	0.479
1312.000	743.194	79.996	19.993	102.849	19.964	5.124	0.476
1312.500	743.415	79.995	19.997	102.853	19.963	5.222	0.494
1313.000	743.648	79.995	19.999	102.860	19.966	4.979	0.473
